timestamp, ecg_measurement
0, 1.6720595372917004
1, 1.5458663646659117
2, 1.6574987866041093
3, 1.871056463355444
4, 1.7480990131046756
5, 1.4431321792590195
6, 1.6502184112603138
7, 2.0522569163565767
8, 1.8241384889176508
9, 1.8467885455427924
10, 1.8273742112926712
11, 1.769940139136062
12, 1.6914738715418216
13, 1.6138165345413364
14, 1.5766057272286038
15, 1.679339912635496
16, 1.8880440058243002
17, 1.9009868953243811
18, 1.826565280698916
19, 1.8168581135738553
20, 1.7197864423232487
21, 1.463355444102896
22, 1.8047241546675294
23, 1.9592298980747451
24, 2.015855039637599
25, 1.9357709108558485
26, 1.8370813784177318
27, 1.8864261446367903
28, 1.8928975893868305
29, 1.8605403656366284
30, 1.841934961980262
31, 1.7262578870732892
32, 1.3274551043520466
33, 1.5393949199158712
34, 1.8775279081054845
35, 1.799061640511244
36, 1.7845008898236532
37, 1.3509140915709432
38, 1.6146254651350913
39, 1.7561883190422263
40, 1.623523701666397
41, 1.9786442323248665
42, 1.9042226176994015
43, 1.4819608477592623
44, 1.6866202879792913
45, 1.8014884322925093
46, 2.417084614140107
47, 2.7673515612360458
48, 1.969745995793561
49, 1.477916194790487
50, 1.4811519171655072
51, 1.4293803591651837
52, 1.6008736450412555
53, 1.9325351884808284
54, 1.708461414010678
55, 1.6469826888852936
56, 1.8524510596990778
57, 1.7739847921048375
58, 1.5976379226662352
59, 1.6405112441352532
60, 1.6550719948228443
61, 1.955994175699725
62, 2.144475004044653
63, 1.4754894030092218
64, 1.7068435528231678
65, 2.2836110661705225
66, 1.7513347354796958
67, 1.2708299627891926
68, 1.8152402523863453
69, 1.6712506066979453
70, 2.1218249474195114
71, 2.216469826888853
72, 1.5911664779161947
73, 1.5571913929784824
74, 2.0255622067626597
75, 2.1024106131693903
76, 1.826565280698916
77, 1.522407377447015
78, 1.7011810386668824
79, 2.0943213072318394
80, 1.8662028797929138
81, 1.5013751820093837
82, 1.8241384889176508
83, 2.431645364827698
84, 1.7424364989483903
85, 1.6858113573855362
86, 1.8217116971363856
87, 1.3509140915709432
88, 1.9624656204497655
89, 2.417893544733862
90, 2.101601682575635
91, 1.6008736450412555
92, 1.8071509464487947
93, 1.6008736450412555
94, 1.535350266947096
95, 2.2188966186701182
96, 1.971363856981071
97, 1.750525804885941
98, 1.3792266623523701
99, 1.9438602167933992
100, 2.132341045138327
101, 1.5369681281346061
102, 1.4576929299466106
103, 1.824947419511406
104, 2.1291053227633068
105, 2.2261769940139136
106, 2.1347678369195924
107, 1.871056463355444
108, 1.7804562368548777
109, 1.5159359326969746
110, 1.854068920886588
111, 2.1371946287008576
112, 1.9179744377932373
113, 1.8354635172302216
114, 1.9349619802620934
115, 2.0247532761689047
116, 1.8047241546675294
117, 1.9495227309496845
118, 1.8217116971363856
119, 1.5846950331661545
120, 2.2577252871703606
121, 2.1420482122633877
122, 1.666397023135415
123, 2.1339589063258373
124, 2.1671250606697945
125, 2.0619640834816373
126, 1.9438602167933992
127, 1.9867335382624172
128, 2.1088820579194305
129, 2.0085746642938034
130, 1.8718653939491992
131, 1.8670118103866689
132, 1.8233295583238958
133, 1.7683222779485521
134, 2.1816858113573856
135, 1.968937065199806
136, 1.7796473062611229
137, 1.824947419511406
138, 2.0190907620126195
139, 1.9171655071994822
140, 1.7634686943860216
141, 2.4081863776088013
142, 2.766542630642291
143, 2.7624979776735157
144, 2.2213234104513835
145, 1.5717521436660735
146, 1.3978320660087364
147, 1.5110823491344443
148, 1.8273742112926712
149, 1.8225206277301407
150, 1.7553793884484712
151, 1.7634686943860216
152, 1.9794531629186216
153, 1.9106940624494417
154, 1.649409480666559
155, 1.727066817667044
156, 1.8362724478239767
157, 1.7950169875424689
158, 1.7011810386668824
159, 1.6437469665102735
160, 1.9381977026371138
161, 1.9487138003559294
162, 1.752952596667206
163, 1.8200938359488756
164, 1.7869276816049182
165, 1.7052256916356576
166, 1.8953243811680958
167, 1.9066494094806665
168, 1.4884322925093028
169, 1.5547646011972174
170, 1.8791457692929947
171, 1.8767189775117294
172, 1.9034136871056464
173, 1.942242355605889
174, 1.9616566898560104
175, 1.7351561236045947
176, 1.7569972496359811
177, 1.9171655071994822
178, 1.8597314350428733
179, 1.8136223911988352
180, 1.8200938359488756
181, 1.711697136385698
182, 1.652645203041579
183, 1.8718653939491992
184, 1.7780294450736127
185, 1.6550719948228443
186, 1.8103866688238148
187, 1.607345089791296
188, 1.623523701666397
189, 1.6016825756350106
190, 1.5571913929784824
191, 1.6761041902604756
192, 1.5830771719786443
193, 1.7448632907296553
194, 1.7756026532923475
195, 1.5393949199158712
196, 1.9325351884808284
197, 1.7764115838861025
198, 1.2967157417893544
199, 1.4981394596343633
200, 1.854877851480343
201, 1.6477916194790487
202, 1.4026856495712667
203, 1.7634686943860216
204, 1.7497168742921858
205, 1.6267594240414172
206, 1.8904707976055655
207, 1.697945316291862
208, 1.565280698916033
209, 1.7650865555735318
210, 1.5725610742598286
211, 1.74081863776088
212, 1.9907781912311924
213, 1.536159197540851
214, 1.519171655071995
215, 1.6987542468856172
216, 1.9535673839184597
217, 2.03365151270021
218, 1.5604271153535028
219, 1.6340397993852127
220, 1.8014884322925093
221, 2.0320336515127
222, 1.80957773823006
223, 1.3298818961333119
224, 1.8912797281993206
225, 1.7432454295421453
226, 1.7319204012295746
227, 1.81119559941757
228, 1.8103866688238148
229, 1.8524510596990778
230, 1.2934800194143343
231, 1.479534055977997
232, 2.0781426953567386
233, 1.5838861025723994
234, 1.6429380359165184
235, 1.9220190907620127
236, 1.9503316615434396
237, 2.9056786927681606
238, 2.588577900016179
239, 1.478725125384242
240, 1.0774955508817343
241, 1.2732567545704578
242, 1.7311114706358195
243, 1.636466591166478
244, 1.8605403656366284
245, 1.7739847921048375
246, 1.3525319527584534
247, 1.59359326969746
248, 1.3072318395081701
249, 1.73758291538586
250, 2.3378094159521114
251, 1.870247532761689
252, 1.4674000970716712
253, 1.4309982203526936
254, 1.9115029930431968
255, 1.6275683546351722
256, 1.666397023135415
257, 1.782074098042388
258, 1.6801488432292508
259, 1.838699239605242
260, 1.8645850186054036
261, 1.682575635010516
262, 1.854068920886588
263, 1.9964407053874778
264, 1.8799546998867498
265, 1.6761041902604756
266, 1.5499110176346869
267, 1.9996764277624979
268, 2.0571104999191068
269, 1.8508331985115678
270, 1.9705549263873159
271, 2.0110014560750686
272, 1.9220190907620127
273, 1.7561883190422263
274, 1.7950169875424689
275, 1.8767189775117294
276, 1.6631613007603947
277, 1.9228280213557676
278, 1.9616566898560104
279, 1.799061640511244
280, 1.6558809254165991
281, 1.73758291538586
282, 1.913120854230707
283, 1.926872674324543
284, 1.9487138003559294
285, 2.579679663484873
286, 2.696974599579356
287, 2.4801812004530013
288, 1.6890470797605566
289, 0.8655557353179097
290, 0.6447176832227794
291, 0.49344766219058406
292, 0.8906325837243164
293, 0.8679825270991749
294, 1.001456075068759
295, 1.4536482769778354
296, 1.437469665102734
297, 1.1074259828506714
298, 0.9852774631936579
299, 1.3282640349458017
300, 1.4674000970716712
301, 1.4698268888529364
302, 1.6219058404788869
303, 1.9042226176994015
304, 1.8532599902928328
305, 1.7869276816049182
306, 2.117780294450736
307, 2.0368872350752305
308, 1.939815563824624
309, 1.9576120368872352
310, 1.7432454295421453
311, 1.7569972496359811
312, 2.130723183950817
313, 2.0886587930755542
314, 1.9171655071994822
315, 1.998867497168743
316, 2.306261122795664
317, 2.3410451383271313
318, 2.2544895647953407
319, 2.24478239767028
320, 2.144475004044653
321, 2.0975570296068597
322, 2.2593431483578708
323, 1.9503316615434396
324, 2.31839508170199
325, 2.4817990616405115
326, 2.231839508170199
327, 2.1226338780132665
328, 1.9479048697621744
329, 1.8742921857304644
330, 1.824947419511406
331, 1.7569972496359811
332, 1.7319204012295746
333, 1.5984468532599903
334, 1.3314997573208218
335, 1.405921371946287
336, 1.550719948228442
337, 1.5248341692282803
338, 1.8322277948552015
339, 1.710888205791943
340, 1.8144313217925903
341, 1.6987542468856172
342, 1.509464487946934
343, 1.6113897427600712
344, 1.678530982041741
345, 1.8152402523863453
346, 1.6332308687914576
347, 1.52159844685326
348, 1.649409480666559
349, 1.5329234751658307
350, 1.567707490697298
351, 1.606536159197541
352, 1.4382785956964892
353, 1.651836272447824
354, 1.6890470797605566
355, 1.3945963436337163
356, 1.4358518039152242
357, 1.3808445235398803
358, 1.6583077171978644
359, 1.913929784824462
360, 1.66558809254166
361, 1.5474842258534218
362, 1.4439411098527746
363, 1.2789192687267432
364, 1.5127002103219545
365, 1.6024915062287655
366, 1.4625465135091409
367, 1.6219058404788869
368, 1.6413201747290083
369, 1.4908590842905678
370, 1.477107264196732
371, 1.4528393463840803
372, 1.5159359326969746
373, 1.391360621258696
374, 1.4900501536968127
375, 1.7149328587607184
376, 1.6154343957288464
377, 1.476298333602977
378, 1.4965215984468532
379, 1.6186701181038667
380, 1.6251415628539072
381, 1.376799870571105
382, 1.5620449765410127
383, 1.73758291538586
384, 1.5329234751658307
385, 1.4706358194466915
386, 1.7205953729170038
387, 1.7141239281669634
388, 1.5846950331661545
389, 1.5960200614787252
390, 1.6647791619479049
391, 1.6202879792913767
392, 1.5976379226662352
393, 1.4034945801650218
394, 1.3832713153211456
395, 1.6777220514479858
396, 1.5102734185406892
397, 1.622714771072642
398, 1.7998705711049992
399, 1.8435528231677722
400, 1.5539556706034623
401, 1.5620449765410127
402, 1.7974437793237341
403, 1.5547646011972174
404, 1.5038019737906487
405, 1.535350266947096
406, 1.4253357061964083
407, 1.622714771072642
408, 1.6178611875101117
409, 1.4382785956964892
410, 1.1996440705387479
411, 1.4309982203526936
412, 1.857304643261608
413, 1.5766057272286038
414, 1.4293803591651837
415, 1.5668985601035432
416, 1.824947419511406
417, 2.444588254327779
418, 2.6824138488917653
419, 2.1517553793884483
420, 1.2150137518200939
421, 0.9343148357870895
422, 1.2384727390389905
423, 1.5248341692282803
424, 1.4415143180715095
425, 1.1268403171007928
426, 1.4940948066655881
427, 1.8362724478239767
428, 1.5604271153535028
429, 1.3298818961333119
430, 1.3581944669147388
431, 1.8136223911988352
432, 1.7294936094483093
433, 1.391360621258696
434, 1.2950978806018443
435, 1.3881248988836759
436, 1.6939006633230869
437, 1.52159844685326
438, 1.6113897427600712
439, 1.7036078304481475
440, 1.4916680148843229
441, 1.114706358194467
442, 1.44960362400906
443, 1.5960200614787252
444, 1.6963274551043521
445, 1.7157417893544733
446, 1.5887396861349297
447, 1.5984468532599903
448, 1.4973305290406083
449, 1.215822682413849
450, 1.2271477107264197
451, 1.5709432130723184
452, 1.1964083481637275
453, 1.4382785956964892
454, 1.8726743245429542
455, 1.4674000970716712
456, 1.6170522569163566
457, 1.5685164212910532
458, 1.565280698916033
459, 1.44960362400906
460, 0.9779970878498625
461, 1.609771881572561
462, 1.984306746481152
463, 1.4625465135091409
464, 0.9909399773499433
465, 1.3541498139459633
466, 1.7925901957612036
467, 1.4746804724154667
468, 1.363048050477269
469, 1.2231030577576445
470, 1.7586151108234913
471, 1.5466752952596667
472, 1.3549587445397184
473, 1.3379712020708623
474, 1.2700210321954377
475, 1.4714447500404466
476, 1.5604271153535028
477, 1.5838861025723994
478, 1.5183627244782398
479, 1.2012619317262578
480, 1.3371622714771072
481, 1.7214043035107587
482, 1.5029930431968936
483, 1.5757967966348487
484, 1.463355444102896
485, 1.30399611713315
486, 1.258696003882867
487, 1.4738715418217117
488, 1.434233942727714
489, 1.2231030577576445
490, 1.7747937226985924
491, 1.5329234751658307
492, 1.2150137518200939
493, 1.5272609610095453
494, 1.6550719948228443
495, 1.6057272286037858
496, 1.30399611713315
497, 1.4301892897589388
498, 1.320174729008251
499, 1.4900501536968127
500, 1.7052256916356576
501, 1.7278757482607991
502, 1.594402200291215
503, 1.2295745025076847
504, 1.4714447500404466
505, 1.6752952596667205
506, 1.1980262093512377
507, 1.3282640349458017
508, 1.4463679016340398
509, 1.2999514641643748
510, 1.5766057272286038
511, 1.5499110176346869
512, 1.4220999838213881
513, 1.5264520304157903
514, 1.4269535673839184
515, 0.9763792266623523
516, 1.6574987866041093
517, 1.6138165345413364
518, 1.6332308687914576
519, 2.6144636790163402
520, 2.562692121016017
521, 1.7092703446044328
522, 0.9407862805371299
523, 1.085584856819285
524, 1.2764924769454782
525, 1.2417084614140106
526, 1.2133958906325837
527, 0.9302701828183142
528, 1.3517230221646983
529, 1.9810710241061318
530, 1.8079598770425498
531, 1.5159359326969746
532, 1.5183627244782398
533, 1.5418217116971364
534, 1.4261446367901633
535, 1.042711535350267
536, 1.2635495874453972
537, 1.855686782074098
538, 1.798252709917489
539, 1.694709593916842
540, 1.522407377447015
541, 1.085584856819285
542, 1.2999514641643748
543, 1.7092703446044328
544, 1.7205953729170038
545, 1.6170522569163566
546, 1.6672059537291701
547, 1.7440543601359004
548, 1.608154020385051
549, 1.7036078304481475
550, 1.7464811519171655
551, 1.710079275198188
552, 1.5927843391037049
553, 1.3056139783206602
554, 1.550719948228442
555, 1.5992557838537453
556, 1.9487138003559294
557, 1.9648924122310305
558, 1.73920077657337
559, 1.66882381491668
560, 1.6186701181038667
561, 1.3792266623523701
562, 1.3509140915709432
563, 1.7796473062611229
564, 1.7796473062611229
565, 1.6882381491668015
566, 1.623523701666397
567, 1.4957126678530983
568, 1.3306908267270667
569, 1.4115838861025725
570, 1.5604271153535028
571, 1.8071509464487947
572, 1.81281346060508
573, 1.6445558971040284
574, 1.6008736450412555
575, 1.5596181847597477
576, 1.4447500404465297
577, 1.6024915062287655
578, 1.5709432130723184
579, 1.7149328587607184
580, 1.7747937226985924
581, 1.6186701181038667
582, 1.637275521760233
583, 1.5434395728846464
584, 1.8047241546675294
585, 1.812004530011325
586, 1.7214043035107587
587, 1.694709593916842
588, 1.651836272447824
589, 1.679339912635496
590, 1.7011810386668824
591, 1.753761527260961
592, 1.798252709917489
593, 1.6615434395728848
594, 1.6130076039475814
595, 1.8459796149490373
596, 1.6502184112603138
597, 1.4010677883837566
598, 1.7125060669794532
599, 2.0166639702313542
600, 1.8314188642614464
601, 1.4544572075715902
602, 1.5110823491344443
603, 1.9026047565118913
604, 1.7917812651674487
605, 1.7214043035107587
606, 1.564471768322278
607, 1.4196731920401229
608, 1.6672059537291701
609, 1.4293803591651837
610, 1.6890470797605566
611, 2.4680472415466754
612, 2.959068111955994
613, 2.8013266461737585
614, 1.7683222779485521
615, 1.0694062449441837
616, 1.4261446367901633
617, 1.6574987866041093
618, 1.5830771719786443
619, 1.5863128943536644
620, 1.3970231354149814
621, 1.5232163080407701
622, 1.6550719948228443
623, 1.4730626112279566
624, 1.7893544733861835
625, 1.8273742112926712
626, 1.799061640511244
627, 1.5620449765410127
628, 1.0354311600064714
629, 1.3743730787898398
630, 1.9624656204497655
631, 1.9236369519495227
632, 1.769940139136062
633, 1.7068435528231678
634, 1.6623523701666396
635, 1.217440543601359
636, 1.3444426468209028
637, 2.0490211939815564
638, 2.001294288950008
639, 1.4544572075715902
640, 1.5337324057595858
641, 1.6752952596667205
642, 1.565280698916033
643, 1.6583077171978644
644, 1.7925901957612036
645, 2.040931888044006
646, 1.9066494094806665
647, 1.564471768322278
648, 1.5175537938844847
649, 1.9381977026371138
650, 1.8912797281993206
651, 1.7294936094483093
652, 1.7214043035107587
653, 1.550719948228442
654, 1.202070862320013
655, 1.045947257725287
656, 1.8031062934800195
657, 1.9365798414496036
658, 1.551528878822197
659, 1.8079598770425498
660, 1.8184759747613655
661, 1.7068435528231678
662, 1.6016825756350106
663, 1.7715580003235722
664, 2.550558162109691
665, 2.6767513347354797
666, 1.5830771719786443
667, 0.8752629024429704
668, 0.6212586960038828
669, 0.5169066494094806
670, 0.6940624494418379
671, 0.46998867497168745
672, 0.5824300275036401
673, 1.1502993043196894
674, 1.0904384403818153
675, 1.1244135253195275
676, 1.0030739362562693
677, 1.176185083319851
678, 1.6704416761041903
679, 1.3695194952273095
680, 1.349296230383433
681, 1.9487138003559294
682, 1.8087688076363049
683, 1.5264520304157903
684, 1.4552661381653453
685, 1.6413201747290083
686, 1.8039152240737744
687, 1.840317100792752
688, 1.7149328587607184
689, 1.7181685811357386
690, 1.5135091409157095
691, 1.6356576605727229
692, 2.0077657337000487
693, 1.8289920724801811
694, 1.6542630642290892
695, 1.8435528231677722
696, 2.2666235237016665
697, 2.132341045138327
698, 1.926872674324543
699, 2.029606859731435
700, 2.045785471606536
701, 1.9236369519495227
702, 1.8395081701989968
703, 1.9462870085746642
704, 2.044167610419026
705, 1.9155476460119722
706, 1.6858113573855362
707, 1.608962950978806
708, 1.6299951464164375
709, 1.4115838861025725
710, 1.4415143180715095
711, 1.2870085746642939
712, 1.202070862320013
713, 1.6939006633230869
714, 1.7747937226985924
715, 1.6162433263226015
716, 1.4884322925093028
717, 1.4698268888529364
718, 1.4657822358841612
719, 1.3848891765086555
720, 1.3727552176023297
721, 1.5159359326969746
722, 1.5499110176346869
723, 1.464164374696651
724, 1.2053065846950333
725, 1.2506066979453163
726, 1.5531467400097072
727, 1.6461737582915386
728, 1.5952111308849701
729, 1.407539233133797
730, 1.3816534541336354
731, 1.505419834978159
732, 1.1187510111632422
733, 0.8162109690988513
734, 1.5369681281346061
735, 1.5499110176346869
736, 1.4018767189775116
737, 1.5830771719786443
738, 1.44960362400906
739, 1.2101601682575636
740, 1.3128943536644555
741, 1.4973305290406083
742, 1.4269535673839184
743, 1.3962142048212263
744, 1.1640511244135254
745, 1.0896295097880602
746, 1.4415143180715095
747, 1.4285714285714286
748, 1.1203688723507523
749, 0.9149005015369681
750, 1.6566898560103542
751, 1.6558809254165991
752, 1.4585018605403657
753, 1.5143180715094644
754, 1.4018767189775116
755, 1.5013751820093837
756, 1.828183141886426
757, 1.900177964730626
758, 1.464164374696651
759, 1.0095453810063097
760, 0.9674809901310467
761, 1.1090438440381816
762, 1.1672868467885456
763, 1.0710241061316939
764, 1.1640511244135254
765, 1.5280698916033004
766, 1.4156285390713477
767, 1.1988351399449928
768, 1.479534055977997
769, 1.708461414010678
770, 1.5838861025723994
771, 1.3185568678207409
772, 1.1931726257887074
773, 1.2085423070700534
774, 1.2392816696327456
775, 1.2724478239767028
776, 1.2781103381329881
777, 1.3145122148519657
778, 1.375182009383595
779, 1.3695194952273095
780, 1.1980262093512377
781, 1.1430189289758939
782, 1.3072318395081701
783, 1.363048050477269
784, 1.3994499271962466
785, 1.2659763792266623
786, 1.2295745025076847
787, 1.247370975570296
788, 1.260313865070377
789, 1.2627406568516422
790, 1.2368548778514803
791, 1.2368548778514803
792, 1.1187510111632422
793, 1.087202718006795
794, 1.0977188157256108
795, 1.2109690988513186
796, 1.8775279081054845
797, 2.502831257078143
798, 2.3370004853583564
799, 1.0912473709755703
800, 0.5735317909723345
801, 1.0216793399126356
802, 1.2142048212263388
803, 1.1430189289758939
804, 1.0952920239443455
805, 1.0847759262255299
806, 1.1373564148196085
807, 1.2392816696327456
808, 1.2287655719139299
809, 1.1972172787574826
810, 1.2069244458825432
811, 1.2004530011325028
812, 1.1454457207571591
813, 1.2408995308202557
814, 1.176185083319851
815, 0.9335059051933344
816, 1.1802297362886265
817, 1.346060508008413
818, 1.3395890632583725
819, 1.289435366445559
820, 1.3541498139459633
821, 1.274874615757968
822, 1.2408995308202557
823, 1.2117780294450735
824, 1.0540365636628377
825, 0.9682899207248018
826, 1.277301407539233
827, 1.7456722213234104
828, 1.493285876071833
829, 0.984468532599903
830, 0.8987218896618671
831, 0.8728361106617052
832, 1.0548454942565928
833, 1.2659763792266623
834, 1.1713314997573208
835, 1.0936741627568354
836, 1.1778029445073612
837, 1.2336191554764602
838, 1.0653615919754085
839, 0.9642452677560265
840, 1.2093512376638085
841, 1.3371622714771072
842, 1.2570781426953568
843, 1.0629348001941434
844, 1.1106617052256917
845, 1.3072318395081701
846, 1.189127972819932
847, 1.0629348001941434
848, 1.058081216631613
849, 1.1753761527260962
850, 1.1527260961009544
851, 1.186701181038667
852, 1.2400906002265006
853, 1.1494903737259343
854, 1.160815402038505
855, 1.218249474195114
856, 1.2344280860702153
857, 1.1098527746319367
858, 0.7741465782235885
859, 1.117942080569487
860, 1.4965215984468532
861, 1.3282640349458017
862, 1.231192363695195
863, 1.2384727390389905
864, 0.8299627891926873
865, 0.6633230868791458
866, 1.4083481637275521
867, 1.7578061802297362
868, 1.3420158550396375
869, 1.1195599417569972
870, 1.1567707490697299
871, 1.1195599417569972
872, 1.2004530011325028
873, 1.3242193819770263
874, 1.0386668823814917
875, 0.6123604594725772
876, 1.1810386668823816
877, 1.6219058404788869
878, 1.3217925901957612
879, 1.16000647144475
880, 1.0961009545381006
881, 0.884970069568031
882, 1.101763468694386
883, 1.3670927034460443
884, 1.2271477107264197
885, 1.115515288788222
886, 1.0499919106940625
887, 1.0621258696003884
888, 1.2724478239767028
889, 1.6607345089791297
890, 2.0490211939815564
891, 2.040122957450251
892, 1.215822682413849
893, 0.5266138165345413
894, 0.6843552823167772
895, 0.9504934476621906
896, 0.956155961818476
897, 0.9262255298495389
898, 0.9682899207248018
899, 1.176185083319851
900, 1.3088497006956803
901, 1.248179906164051
902, 1.1988351399449928
903, 1.1357385536320983
904, 1.088820579194305
905, 1.0321954376314513
906, 1.1001456075068758
907, 1.2117780294450735
908, 1.1923636951949523
909, 1.114706358194467
910, 1.08639378741304
911, 1.115515288788222
912, 1.1033813298818962
913, 1.0346222294127163
914, 1.1826565280698915
915, 1.2352370166639701
916, 1.1462546513509142
917, 1.144636790163404
918, 1.2595049344766218
919, 1.375182009383595
920, 1.202070862320013
921, 1.1203688723507523
922, 1.346869438602168
923, 1.3428247856333926
924, 1.2530334897265814
925, 1.2716388933829477
926, 1.2530334897265814
927, 1.1535350266947095
928, 1.101763468694386
929, 1.2489888367578061
930, 1.2417084614140106
931, 1.1721404303510758
932, 1.1454457207571591
933, 1.1195599417569972
934, 1.1001456075068758
935, 1.0969098851318557
936, 1.059699077819123
937, 1.045947257725287
938, 1.0516097718815725
939, 1.0774955508817343
940, 0.8712182494741951
941, 0.9367416275683547
942, 1.0702151755379388
943, 1.0823491344442646
944, 1.2085423070700534
945, 1.071833036725449
946, 1.0370490211939816
947, 1.1138974276007119
948, 1.1519171655071996
949, 1.1260313865070377
950, 1.0815402038505095
951, 1.08639378741304
952, 1.1405921371946286
953, 1.0977188157256108
954, 0.9852774631936579
955, 1.058890147225368
956, 1.0993366769131208
957, 0.9545381006309659
958, 1.1454457207571591
959, 1.3387801326646174
960, 1.1907458340074422
961, 1.2255298495389095
962, 1.3573855363209837
963, 1.2198673353826242
964, 1.173758291538586
965, 1.144636790163404
966, 1.0532276330690826
967, 1.0402847435690017
968, 1.1462546513509142
969, 1.1721404303510758
970, 1.1122795664132017
971, 1.1252224559132826
972, 1.1325028312570782
973, 1.0419026047565119
974, 0.7709108558485682
975, 0.8793075554117457
976, 1.3379712020708623
977, 1.2392816696327456
978, 1.1397832066008737
979, 1.3242193819770263
980, 1.7869276816049182
981, 2.1517553793884483
982, 1.8937065199805856
983, 0.9723345736935771
984, 0.39071347678369195
985, 0.5549263873159683
986, 0.8380520951302378
987, 0.9820417408186377
988, 1.0540365636628377
989, 1.0774955508817343
990, 1.0402847435690017
991, 1.042711535350267
992, 1.0483740495065523
993, 0.8663646659116648
994, 0.8671735965054198
995, 1.1567707490697299
996, 1.203688723507523
997, 1.0912473709755703
998, 1.0742598285067142
999, 1.2109690988513186
1000, 1.1502993043196894
1001, 1.1502993043196894
1002, 1.1454457207571591
1003, 1.1373564148196085
1004, 1.1721404303510758
1005, 1.1705225691635657
1006, 1.1502993043196894
1007, 1.1842743892574017
1008, 1.1972172787574826
1009, 1.1818475974761367
1010, 1.189127972819932
1011, 1.2125869600388286
1012, 1.1996440705387479
1013, 1.2247209189451544
1014, 1.245753114382786
1015, 1.2425173920077657
1016, 1.2408995308202557
1017, 1.2133958906325837
1018, 1.1559618184759748
1019, 0.9262255298495389
1020, 0.9448309335059052
1021, 1.291053227633069
1022, 1.2417084614140106
1023, 1.1478725125384242
1024, 1.1187510111632422
1025, 0.841287817505258
1026, 0.9456398640996603
1027, 1.071833036725449
1028, 0.8744539718492154
1029, 1.1834654586636466
1030, 1.2214851965701343
1031, 0.9488755864746805
1032, 1.3865070376961657
1033, 1.8500242679178127
1034, 1.841934961980262
1035, 1.7610419026047566
1036, 1.3573855363209837
1037, 0.5897104028474357
1038, 0.06795016987542468
1039, 0.03721080731273257
1040, 0.20627730140753922
1041, 0.42145283934638406
1042, 0.5727228603785796
1043, 0.6204497654101279
1044, 0.6002265005662514
1045, 0.5557353179097233
1046, 0.5929461252224559
1047, 0.7450250768484064
1048, 0.914091570943213
1049, 0.9351237663808445
1050, 1.160815402038505
1051, 1.1640511244135254
1052, 1.0491829801003074
1053, 1.217440543601359
1054, 1.2522245591328265
1055, 1.2206762659763792
1056, 1.2959068111955994
1057, 1.3525319527584534
1058, 1.231192363695195
1059, 1.08639378741304
1060, 1.203688723507523
1061, 1.5127002103219545
1062, 1.23200129428895
1063, 1.1624332632260153
1064, 1.7133149975732083
1065, 1.7747937226985924
1066, 1.666397023135415
1067, 1.623523701666397
1068, 1.6348487299789678
1069, 1.679339912635496
1070, 1.6219058404788869
1071, 1.6049182980100307
1072, 1.5668985601035432
1073, 1.3848891765086555
1074, 1.3314997573208218
1075, 1.3501051609771881
1076, 1.3436337162271477
1077, 1.550719948228442
1078, 1.508655557353179
1079, 1.202879792913768
1080, 0.6115515288788222
1081, 1.0321954376314513
1082, 1.5927843391037049
1083, 1.3581944669147388
1084, 1.1494903737259343
1085, 1.333926549102087
1086, 1.3347354796958422
1087, 1.2061155152887881
1088, 1.2053065846950333
1089, 1.2053065846950333
1090, 1.2101601682575636
1091, 1.2004530011325028
1092, 1.1786118751011163
1093, 1.1527260961009544
1094, 1.1616243326322602
1095, 1.1705225691635657
1096, 1.173758291538586
1097, 1.1842743892574017
1098, 1.1818475974761367
1099, 1.187510111632422
1100, 1.189127972819932
1101, 1.1713314997573208
1102, 1.174567222132341
1103, 1.1818475974761367
1104, 1.1850833198511568
1105, 1.1697136385698108
1106, 1.0467561883190422
1107, 0.7215660896295097
1108, 0.912473709755703
1109, 1.6146254651350913
1110, 1.5458663646659117
1111, 1.2934800194143343
1112, 1.2417084614140106
1113, 1.2287655719139299
1114, 1.1502993043196894
1115, 1.0807312732567547
1116, 1.1341206924445884
1117, 1.1519171655071996
1118, 1.2538424203203364
1119, 1.1041902604756513
1120, 0.9294612522245591
1121, 1.2724478239767028
1122, 1.3832713153211456
1123, 1.2975246723831095
1124, 1.2627406568516422
1125, 1.203688723507523
1126, 1.1972172787574826
1127, 1.2044976541012782
1128, 1.202879792913768
1129, 1.1931726257887074
1130, 1.1850833198511568
1131, 1.1947904869762174
1132, 1.1163242193819771
1133, 0.9068111955994176
1134, 1.1389742760071186
1135, 1.4900501536968127
1136, 1.3217925901957612
1137, 1.2069244458825432
1138, 1.2368548778514803
1139, 1.2117780294450735
1140, 1.2061155152887881
1141, 1.30399611713315
1142, 1.2684031710079275
1143, 1.1462546513509142
1144, 1.274065685164213
1145, 1.4261446367901633
1146, 1.3703284258210646
1147, 1.1098527746319367
1148, 1.0499919106940625
1149, 1.3274551043520466
1150, 1.3800355929461252
1151, 1.3412069244458826
1152, 1.3250283125707814
1153, 1.3856981071024106
1154, 1.3347354796958422
1155, 1.101763468694386
1156, 0.9480666558809254
1157, 1.333117618508332
1158, 1.3824623847273905
1159, 1.3355444102895973
1160, 1.392169551852451
1161, 1.3023782559456398
1162, 1.4868144313217926
1163, 1.8880440058243002
1164, 2.053065846950332
1165, 1.636466591166478
1166, 0.8137841773175861
1167, 0.8323895809739524
1168, 1.260313865070377
1169, 1.261122795664132
1170, 1.2336191554764602
1171, 1.2967157417893544
1172, 1.3056139783206602
1173, 1.2659763792266623
1174, 1.2069244458825432
1175, 1.1389742760071186
1176, 1.2352370166639701
1177, 1.3598123281022487
1178, 1.2352370166639701
1179, 1.3161300760394758
1180, 1.3679016340397994
1181, 1.0127811033813299
1182, 1.057272286037858
1183, 1.5232163080407701
1184, 1.4617375829153858
1185, 1.304805047726905
1186, 1.275683546351723
1187, 1.2675942404141725
1188, 1.2700210321954377
1189, 1.2667853098204174
1190, 1.2514156285390714
1191, 1.1292671088820578
1192, 1.056463355444103
1193, 1.2133958906325837
1194, 1.4301892897589388
1195, 1.464164374696651
1196, 1.3525319527584534
1197, 1.306422908914415
1198, 1.215822682413849
1199, 1.1130884970069568
1200, 1.2085423070700534
1201, 1.3428247856333926
1202, 1.3800355929461252
1203, 1.37599093997735
1204, 1.2061155152887881
1205, 1.0969098851318557
1206, 1.3541498139459633
1207, 1.3662837728522892
1208, 1.2684031710079275
1209, 1.2376638084452354
1210, 1.2247209189451544
1211, 1.2077333764762983
1212, 1.1988351399449928
1213, 1.2085423070700534
1214, 1.23200129428895
1215, 1.1980262093512377
1216, 1.131693900663323
1217, 1.1454457207571591
1218, 1.176185083319851
1219, 1.1915547646011972
1220, 1.1624332632260153
1221, 1.130076039475813
1222, 1.2085423070700534
1223, 1.1753761527260962
1224, 1.1422099983821388
1225, 1.2061155152887881
1226, 1.2053065846950333
1227, 1.0063096586312894
1228, 1.0758776896942241
1229, 1.3581944669147388
1230, 1.3314997573208218
1231, 1.2231030577576445
1232, 1.203688723507523
1233, 1.188319042226177
1234, 1.172949360944831
1235, 1.2125869600388286
1236, 1.2441352531952758
1237, 1.23200129428895
1238, 1.1939815563824623
1239, 1.2004530011325028
1240, 1.1980262093512377
1241, 1.1494903737259343
1242, 1.1074259828506714
1243, 1.1664779161947905
1244, 1.1834654586636466
1245, 1.1195599417569972
1246, 1.1244135253195275
1247, 1.1341206924445884
1248, 1.101763468694386
1249, 1.100954538100631
1250, 1.1292671088820578
1251, 1.1276492476945479
1252, 1.1106617052256917
1253, 1.1187510111632422
1254, 1.2400906002265006
1255, 1.8144313217925903
1256, 1.8233295583238958
1257, 1.101763468694386
1258, 0.666558809254166
1259, 0.7086232001294289
1260, 0.9521113088497007
1261, 1.028959715256431
1262, 1.0127811033813299
1263, 1.058081216631613
1264, 1.0677883837566737
1265, 1.0621258696003884
1266, 1.0685973143504288
1267, 1.0710241061316939
1268, 1.029768645850186
1269, 1.0071185892250445
1270, 1.0936741627568354
1271, 1.0807312732567547
1272, 1.0556544248503479
1273, 1.042711535350267
1274, 1.027341854068921
1275, 1.0321954376314513
1276, 1.026532923475166
1277, 1.0249150622876557
1278, 1.0208704093188805
1279, 1.042711535350267
1280, 1.0653615919754085
1281, 1.042711535350267
1282, 1.026532923475166
1283, 1.045947257725287
1284, 1.0742598285067142
1285, 1.0758776896942241
1286, 1.0904384403818153
1287, 1.1244135253195275
1288, 1.130076039475813
1289, 1.0993366769131208
1290, 1.0993366769131208
1291, 1.0443293965377771
1292, 1.027341854068921
1293, 1.0216793399126356
1294, 1.0152078951625951
1295, 0.9982203526937389
1296, 0.9723345736935771
1297, 0.9666720595372917
1298, 0.956155961818476
1299, 0.9585827535997411
1300, 0.9464487946934153
1301, 0.9254165992557839
1302, 0.8971040284743569
1303, 0.8962950978806018
1304, 0.8720271800679502
1305, 0.8655557353179097
1306, 0.8962950978806018
1307, 0.8922504449118266
1308, 0.86879145769293
1309, 0.8437146092865232
1310, 0.8526128458178288
1311, 0.8526128458178288
1312, 0.8647468047241547
1313, 0.8380520951302378
1314, 0.7927519818799547
1315, 0.8129752467238311
1316, 0.8744539718492154
1317, 0.8728361106617052
1318, 0.8469503316615434
1319, 0.8380520951302378
1320, 0.8752629024429704
1321, 0.8598932211616244
1322, 0.869600388286685
1323, 0.8890147225368064
1324, 0.8639378741303996
1325, 0.8776896942242356
1326, 0.9011486814431322
1327, 0.9051933344119074
1328, 0.9375505581621096
1329, 0.9108558485681928
1330, 0.8793075554117457
1331, 0.8954861672868468
1332, 0.884970069568031
1333, 0.8299627891926873
1334, 0.8218734832551368
1335, 0.8105484549425659
1336, 0.79679663484873
1337, 0.8283449280051771
1338, 0.8040770101925255
1339, 0.7684840640673031
1340, 0.7903251900986895
1341, 0.7701019252548131
1342, 0.7304643261608154
1343, 0.7337000485358356
1344, 0.8590842905678693
1345, 1.1769940139136061
1346, 1.493285876071833
1347, 1.4140106778838375
1348, 0.7652483416922828
1349, 0.26694709593916843
1350, 0.3737259343148358
1351, 0.6115515288788222
1352, 0.6835463517230221
1353, 0.7005338941918783
1354, 0.7118589225044492
1355, 0.7587768969422424
1356, 0.8040770101925255
1357, 0.7757644394110985
1358, 0.7741465782235885
1359, 0.8065038019737907
1360, 0.7911341206924446
1361, 0.7895162595049344
1362, 0.7911341206924446
1363, 0.7725287170360783
1364, 0.7563501051609772
1365, 0.782235884161139
1366, 0.8340074421614625
1367, 0.8243002750364019
1368, 0.8097395243488109
1369, 0.8372431645364827
1370, 0.8218734832551368
1371, 0.8073127325675457
1372, 0.8526128458178288
1373, 0.8380520951302378
1374, 0.8526128458178288
1375, 0.8712182494741951
1376, 0.8566574987866041
1377, 0.8509949846303188
1378, 0.8882057919430513
1379, 0.9060022650056625
1380, 0.9221808768807637
1381, 0.9181362239119883
1382, 0.8865879307555412
1383, 0.9019576120368872
1384, 0.869600388286685
1385, 0.8930593755055817
1386, 0.8962950978806018
1387, 0.8267270668176671
1388, 0.8323895809739524
1389, 0.8534217764115839
1390, 0.854230707005339
1391, 0.8453324704740334
1392, 0.8234913444426468
1393, 0.8251092056301569
1394, 0.8437146092865232
1395, 0.8364342339427278
1396, 0.8129752467238311
1397, 0.8056948713800356
1398, 0.8615110823491344
1399, 1.0548454942565928
1400, 1.3363533408833521
1401, 1.4908590842905678
1402, 1.3743730787898398
1403, 1.01439896456884
1404, 0.5096262740656852
1405, 0.11082349134444265
1406, 0.0
1407, 0.09626274065685164
1408, 0.2766542630642291
1409, 0.39233133797120207
1410, 0.4263064229089144
1411, 0.4376314512214852
1412, 0.40042064390875265
1413, 0.420643908752629
1414, 0.5646335544410289
1415, 0.754732243973467
1416, 0.8671735965054198
1417, 0.9011486814431322
1418, 0.956964892412231
1419, 1.01601682575635
1420, 0.9747613654748423
1421, 0.9626274065685164
1422, 1.0055007280375343
1423, 0.9399773499433749
1424, 0.9043844038181524
1425, 0.9537291700372108
1426, 0.9788060184436176
1427, 0.9893221161624333
1428, 1.0249150622876557
1429, 1.045947257725287
1430, 1.0969098851318557
1431, 1.1276492476945479
1432, 1.1462546513509142
1433, 1.1826565280698915
1434, 1.2360459472577252
1435, 1.2942889500080894
1436, 1.3072318395081701
1437, 1.3096586312894354
1438, 1.3185568678207409
1439, 1.2861996440705388
1440, 1.2271477107264197
1441, 1.1535350266947095
1442, 1.101763468694386
1443, 1.0791134120692445
1444, 1.045947257725287
1445, 0.9634363371622715
1446, 0.9367416275683547
1447, 0.9189451545057434
1448, 0.9043844038181524
1449, 0.9221808768807637
1450, 0.8898236531305614
1451, 0.9003397508493771
1452, 0.9092379873806827
1453, 0.8825432777867659
1454, 0.94240414172464
1455, 0.9602006147872513
1456, 0.9375505581621096
1457, 0.897912959068112
1458, 0.8971040284743569
1459, 0.9464487946934153
1460, 0.9771881572561074
1461, 0.9084290567869276
1462, 0.8930593755055817
1463, 0.9521113088497007
1464, 1.0224882705063905
1465, 0.9513023782559457
1466, 0.8315806503801974
1467, 0.9019576120368872
1468, 0.969907781912312
1469, 0.9634363371622715
1470, 0.9440220029121501
1471, 0.9383594887558647
1472, 0.9391684193496198
1473, 0.927843391037049
1474, 0.9472577252871703
1475, 0.9464487946934153
1476, 0.9043844038181524
1477, 0.8938683060993367
1478, 0.9351237663808445
1479, 0.9294612522245591
1480, 0.9221808768807637
1481, 0.9529202394434557
1482, 0.9189451545057434
1483, 0.8857790001617861
1484, 0.9254165992557839
1485, 0.956155961818476
1486, 0.9351237663808445
1487, 0.9019576120368872
1488, 0.9189451545057434
1489, 0.9310791134120693
1490, 0.9197540850994984
1491, 0.9149005015369681
1492, 0.9237987380682737
1493, 0.9545381006309659
1494, 0.9318880440058243
1495, 0.9335059051933344
1496, 0.9375505581621096
1497, 0.9343148357870895
1498, 0.9480666558809254
1499, 0.956155961818476
1500, 0.9229898074745186
1501, 0.9820417408186377
1502, 1.0208704093188805
1503, 1.0483740495065523
1504, 1.042711535350267
1505, 1.0192525481313703
1506, 1.0823491344442646
1507, 1.0920563015693254
1508, 1.0475651189127972
1509, 1.130884970069568
1510, 1.1842743892574017
1511, 1.1640511244135254
1512, 1.1422099983821388
1513, 1.1502993043196894
1514, 1.08639378741304
1515, 1.0783044814754894
1516, 1.1381653454133636
1517, 1.160815402038505
1518, 1.1462546513509142
1519, 1.1292671088820578
1520, 1.1276492476945479
1521, 1.143827859569649
1522, 1.2279566413201748
1523, 1.260313865070377
1524, 1.2044976541012782
1525, 1.1616243326322602
1526, 1.3670927034460443
1527, 1.769940139136062
1528, 2.1946287008574665
1529, 2.117780294450736
1530, 1.3395890632583725
1531, 0.769292994661058
1532, 0.8267270668176671
1533, 1.0685973143504288
1534, 1.174567222132341
1535, 1.2441352531952758
1536, 1.2764924769454782
1537, 1.261931726257887
1538, 1.2667853098204174
1539, 1.316939006633231
1540, 1.291053227633069
1541, 1.3153211454457208
1542, 1.346060508008413
1543, 1.3387801326646174
1544, 1.3355444102895973
1545, 1.2821549911017636
1546, 1.303187186539395
1547, 1.3056139783206602
1548, 1.3314997573208218
1549, 1.4318071509464487
1550, 1.3525319527584534
1551, 1.2384727390389905
1552, 1.2764924769454782
1553, 1.2813460605080085
1554, 1.2926710888205792
1555, 1.3598123281022487
1556, 1.3840802459149004
1557, 1.3436337162271477
1558, 1.3161300760394758
1559, 1.3145122148519657
1560, 1.3161300760394758
1561, 1.37760880116486
1562, 1.3840802459149004
1563, 1.291053227633069
1564, 1.2967157417893544
1565, 1.3080407701019252
1566, 1.3250283125707814
1567, 1.3662837728522892
1568, 1.3436337162271477
1569, 1.3298818961333119
1570, 1.3646659116647792
1571, 1.3848891765086555
1572, 1.3800355929461252
1573, 1.3590033975084939
1574, 1.3865070376961657
1575, 1.2934800194143343
1576, 1.3598123281022487
1577, 1.3897427600711858
1578, 1.3347354796958422
1579, 1.346060508008413
1580, 1.348487299789678
1581, 1.3792266623523701
1582, 1.4326160815402038
1583, 1.4220999838213881
1584, 1.3865070376961657
1585, 1.4269535673839184
1586, 1.4455589710402847
1587, 1.4196731920401229
1588, 1.4148196084775926
1589, 1.44798576282155
1590, 1.4860055007280375
1591, 1.4730626112279566
1592, 1.4326160815402038
1593, 1.4423232486652646
1594, 1.447176832227795
1595, 1.4835787089467725
1596, 1.536159197540851
1597, 1.4738715418217117
1598, 1.4560750687591004
1599, 1.5725610742598286
1600, 1.5110823491344443
1601, 1.507846626759424
1602, 1.535350266947096
1603, 1.4876233619155477
1604, 1.4220999838213881
1605, 1.361430189289759
1606, 1.3428247856333926
1607, 1.3735641481960847
1608, 1.3565766057272286
1609, 1.3509140915709432
1610, 1.3314997573208218
1611, 1.3387801326646174
1612, 1.333926549102087
1613, 1.2999514641643748
1614, 1.2918621582268242
1615, 1.2643585180391523
1616, 1.2853907134767837
1617, 1.6332308687914576
1618, 2.215660896295098
1619, 2.450250768484064
1620, 1.7909723345736936
1621, 0.9957935609124737
1622, 0.8954861672868468
1623, 1.029768645850186
1624, 1.1697136385698108
1625, 1.2522245591328265
1626, 1.2635495874453972
1627, 1.2732567545704578
1628, 1.349296230383433
1629, 1.3646659116647792
1630, 1.3298818961333119
1631, 1.3209836596020061
1632, 1.3557676751334735
1633, 1.37760880116486
1634, 1.3840802459149004
1635, 1.346869438602168
1636, 1.3679016340397994
1637, 1.37760880116486
1638, 1.3848891765086555
1639, 1.4115838861025725
1640, 1.4099660249150623
1641, 1.4576929299466106
1642, 1.3816534541336354
1643, 1.3727552176023297
1644, 1.4512214851965701
1645, 1.4536482769778354
1646, 1.4439411098527746
1647, 1.4649733052904061
1648, 1.4989483902281184
1649, 1.4851965701342824
1650, 1.463355444102896
1651, 1.478725125384242
1652, 1.5135091409157095
1653, 1.4843876395405273
1654, 1.4940948066655881
1655, 1.4714447500404466
1656, 1.4083481637275521
1657, 1.4447500404465297
1658, 1.447176832227795
1659, 1.4034945801650218
1660, 1.3848891765086555
1661, 1.4099660249150623
1662, 1.3711373564148197
1663, 1.3080407701019252
1664, 1.3654748422585343
1665, 1.3314997573208218
1666, 1.2861996440705388
1667, 1.3905516906649409
1668, 1.3298818961333119
1669, 1.258696003882867
1670, 1.320174729008251
1671, 1.3557676751334735
1672, 1.3242193819770263
1673, 1.3209836596020061
1674, 1.320174729008251
1675, 1.3209836596020061
1676, 1.3258372431645364
1677, 1.3209836596020061
1678, 1.3145122148519657
1679, 1.3501051609771881
1680, 1.3355444102895973
1681, 1.2983336029768646
1682, 1.3711373564148197
1683, 1.3638569810710242
1684, 1.3735641481960847
1685, 1.3808445235398803
1686, 1.3727552176023297
1687, 1.3840802459149004
1688, 1.436660734508979
1689, 1.463355444102896
1690, 1.4706358194466915
1691, 1.4196731920401229
1692, 1.4188642614463678
1693, 1.4407053874777545
1694, 1.4196731920401229
1695, 1.3792266623523701
1696, 1.2813460605080085
1697, 1.274065685164213
1698, 1.2967157417893544
1699, 1.3557676751334735
1700, 1.317747937226986
1701, 1.2837728522892735
1702, 1.291053227633069
1703, 1.3185568678207409
1704, 1.2967157417893544
1705, 1.1616243326322602
1706, 1.3161300760394758
1707, 1.766704416761042
1708, 2.2957450250768483
1709, 2.4551043520465945
1710, 1.7586151108234913
1711, 0.9521113088497007
1712, 0.7628215499110176
1713, 1.013590033975085
1714, 1.2061155152887881
1715, 1.1842743892574017
1716, 1.246562044976541
1717, 1.2506066979453163
1718, 1.1996440705387479
1719, 1.2506066979453163
1720, 1.2983336029768646
1721, 1.2789192687267432
1722, 1.2506066979453163
1723, 1.3088497006956803
1724, 1.3088497006956803
1725, 1.2692121016016826
1726, 1.320174729008251
1727, 1.3290729655395568
1728, 1.3282640349458017
1729, 1.3379712020708623
1730, 1.3274551043520466
1731, 1.3056139783206602
1732, 1.3266461737582915
1733, 1.4026856495712667
1734, 1.418055330852613
1735, 1.349296230383433
1736, 1.3242193819770263
1737, 1.4172464002588578
1738, 1.3711373564148197
1739, 1.3792266623523701
1740, 1.4269535673839184
1741, 1.405921371946287
1742, 1.4261446367901633
1743, 1.4277624979776735
1744, 1.421291053227633
1745, 1.4164374696651028
1746, 1.3986409966024915
1747, 1.3865070376961657
1748, 1.375182009383595
1749, 1.3606212586960038
1750, 1.3209836596020061
1751, 1.320174729008251
1752, 1.3007603947581297
1753, 1.2918621582268242
1754, 1.303187186539395
1755, 1.291053227633069
1756, 1.2708299627891926
1757, 1.247370975570296
1758, 1.218249474195114
1759, 1.1964083481637275
1760, 1.244944183789031
1761, 1.2643585180391523
1762, 1.2570781426953568
1763, 1.3719462870085746
1764, 1.6558809254165991
1765, 1.9640834816372754
1766, 2.0312247209189453
1767, 1.695518524510597
1768, 1.1163242193819771
1769, 0.5565442485034784
1770, 0.24591490050153697
1771, 0.23782559456398641
1772, 0.3874777544086717
1773, 0.5889014722536806
1774, 0.7094321307231839
1775, 0.7563501051609772
1776, 0.72480181200453
1777, 0.6932535188480828
1778, 0.8000323572237502
1779, 0.9755702960685974
1780, 1.1939815563824623
1781, 1.3080407701019252
1782, 1.2942889500080894
1783, 1.2797281993204983
1784, 1.2805371299142534
1785, 1.2959068111955994
1786, 1.2942889500080894
1787, 1.2538424203203364
1788, 1.2514156285390714
1789, 1.2724478239767028
1790, 1.3161300760394758
1791, 1.3274551043520466
1792, 1.361430189289759
1793, 1.3743730787898398
1794, 1.4067303025400422
1795, 1.4593107911341208
1796, 1.5046109043844038
1797, 1.5531467400097072
1798, 1.6049182980100307
1799, 1.6283772852289273
1800, 1.6712506066979453
1801, 1.710079275198188
1802, 1.6930917327293318
1803, 1.679339912635496
1804, 1.6251415628539072
1805, 1.5733700048535835
1806, 1.5118912797281994
1807, 1.4536482769778354
1808, 1.4318071509464487
1809, 1.3517230221646983
1810, 1.2983336029768646
1811, 1.2522245591328265
1812, 1.2271477107264197
1813, 1.1907458340074422
1814, 1.157579679663485
1815, 1.1462546513509142
1816, 1.1365474842258534
1817, 1.1502993043196894
1818, 1.1689047079760557
1819, 1.1551528878822197
1820, 1.1535350266947095
1821, 1.143827859569649
1822, 1.1268403171007928
1823, 1.130884970069568
1824, 1.1511082349134445
1825, 1.1276492476945479
1826, 1.1033813298818962
1827, 1.115515288788222
1828, 1.130076039475813
1829, 1.1349296230383432
1830, 1.117133149975732
1831, 1.1187510111632422
1832, 1.1244135253195275
1833, 1.1163242193819771
1834, 1.1098527746319367
1835, 1.1082349134444265
1836, 1.1187510111632422
1837, 1.1333117618508333
1838, 1.1519171655071996
1839, 1.1405921371946286
1840, 1.1203688723507523
1841, 1.0944830933505905
1842, 1.102572399288141
1843, 1.1260313865070377
1844, 1.1268403171007928
1845, 1.1187510111632422
1846, 1.1252224559132826
1847, 1.1260313865070377
1848, 1.1106617052256917
1849, 1.1130884970069568
1850, 1.1187510111632422
1851, 1.1195599417569972
1852, 1.1082349134444265
1853, 1.1066170522569163
1854, 1.1082349134444265
1855, 1.1033813298818962
1856, 1.117942080569487
1857, 1.117942080569487
1858, 1.1187510111632422
1859, 1.1236045947257725
1860, 1.1252224559132826
1861, 1.1227956641320174
1862, 1.1074259828506714
1863, 1.0815402038505095
1864, 1.0661705225691636
1865, 1.1066170522569163
1866, 1.1769940139136061
1867, 1.1535350266947095
1868, 1.1454457207571591
1869, 1.1689047079760557
1870, 1.202879792913768
1871, 1.2231030577576445
1872, 1.2255298495389095
1873, 1.2053065846950333
1874, 1.187510111632422
1875, 1.1769940139136061
1876, 1.1494903737259343
1877, 1.1381653454133636
1878, 1.131693900663323
1879, 1.1357385536320983
1880, 1.1268403171007928
1881, 1.1357385536320983
1882, 1.1219867335382625
1883, 1.1163242193819771
1884, 1.1511082349134445
1885, 1.1236045947257725
1886, 1.1074259828506714
1887, 1.2692121016016826
1888, 1.6583077171978644
1889, 2.0619640834816373
1890, 1.8872350752305451
1891, 1.1122795664132017
1892, 0.6439087526290245
1893, 0.7450250768484064
1894, 0.9456398640996603
1895, 1.0224882705063905
1896, 1.0677883837566737
1897, 1.0961009545381006
1898, 1.0969098851318557
1899, 1.1106617052256917
1900, 1.1236045947257725
1901, 1.1187510111632422
1902, 1.1049991910694061
1903, 1.0920563015693254
1904, 1.1033813298818962
1905, 1.1114706358194466
1906, 1.114706358194467
1907, 1.1236045947257725
1908, 1.144636790163404
1909, 1.1519171655071996
1910, 1.1260313865070377
1911, 1.117942080569487
1912, 1.1357385536320983
1913, 1.1414010677883837
1914, 1.1349296230383432
1915, 1.157579679663485
1916, 1.1753761527260962
1917, 1.1834654586636466
1918, 1.1939815563824623
1919, 1.202879792913768
1920, 1.1988351399449928
1921, 1.1850833198511568
1922, 1.189127972819932
1923, 1.2012619317262578
1924, 1.1996440705387479
1925, 1.2109690988513186
1926, 1.2101601682575636
1927, 1.203688723507523
1928, 1.215822682413849
1929, 1.2255298495389095
1930, 1.2344280860702153
1931, 1.244944183789031
1932, 1.2392816696327456
1933, 1.2255298495389095
1934, 1.2247209189451544
1935, 1.2279566413201748
1936, 1.2085423070700534
1937, 1.2012619317262578
1938, 1.2077333764762983
1939, 1.2085423070700534
1940, 1.203688723507523
1941, 1.215822682413849
1942, 1.23200129428895
1943, 1.2400906002265006
1944, 1.2360459472577252
1945, 1.2125869600388286
1946, 1.2150137518200939
1947, 1.2433263226015208
1948, 1.2635495874453972
1949, 1.2506066979453163
1950, 1.2408995308202557
1951, 1.231192363695195
1952, 1.2336191554764602
1953, 1.258696003882867
1954, 1.2813460605080085
1955, 1.2813460605080085
1956, 1.2967157417893544
1957, 1.290244297039314
1958, 1.2959068111955994
1959, 1.3420158550396375
1960, 1.3581944669147388
1961, 1.4002588577900017
1962, 1.3994499271962466
1963, 1.3096586312894354
1964, 1.261122795664132
1965, 1.2562692121016017
1966, 1.2497977673515612
1967, 1.2425173920077657
1968, 1.2554602815078466
1969, 1.2627406568516422
1970, 1.2570781426953568
1971, 1.247370975570296
1972, 1.2546513509140915
1973, 1.247370975570296
1974, 1.2408995308202557
1975, 1.2247209189451544
1976, 1.2384727390389905
1977, 1.4722536806342015
1978, 1.9624656204497655
1979, 2.281184274389257
1980, 1.9090762012619318
1981, 1.0936741627568354
1982, 0.7409804238796311
1983, 0.9448309335059052
1984, 1.1389742760071186
1985, 1.1842743892574017
1986, 1.1996440705387479
1987, 1.216631613007604
1988, 1.2255298495389095
1989, 1.244944183789031
1990, 1.3185568678207409
1991, 1.3662837728522892
1992, 1.2287655719139299
1993, 0.9310791134120693
1994, 0.9779970878498625
1995, 1.3395890632583725
1996, 1.435042873321469
1997, 1.3436337162271477
1998, 1.3080407701019252
1999, 1.3104675618831905
2000, 1.2983336029768646
2001, 1.2975246723831095
2002, 1.320174729008251
2003, 1.3145122148519657
2004, 1.304805047726905
2005, 1.332308687914577
2006, 1.333117618508332
2007, 1.3565766057272286
2008, 1.3824623847273905
2009, 1.3590033975084939
2010, 1.3347354796958422
2011, 1.3873159682899208
2012, 1.437469665102734
2013, 1.37760880116486
2014, 1.3606212586960038
2015, 1.3945963436337163
2016, 1.3832713153211456
2017, 1.347678369195923
2018, 1.3104675618831905
2019, 1.3023782559456398
2020, 1.2764924769454782
2021, 1.23200129428895
2022, 1.231192363695195
2023, 1.2352370166639701
2024, 1.2198673353826242
2025, 1.232810224882705
2026, 1.2344280860702153
2027, 1.2231030577576445
2028, 1.2522245591328265
2029, 1.2376638084452354
2030, 1.1753761527260962
2031, 1.1672868467885456
2032, 1.1939815563824623
2033, 1.203688723507523
2034, 1.2077333764762983
2035, 1.2247209189451544
2036, 1.2506066979453163
2037, 1.2117780294450735
2038, 1.1939815563824623
2039, 1.1931726257887074
2040, 1.218249474195114
2041, 1.2530334897265814
2042, 1.2344280860702153
2043, 1.2303834331014398
2044, 1.2142048212263388
2045, 1.1996440705387479
2046, 1.2627406568516422
2047, 1.2789192687267432
2048, 1.2595049344766218
2049, 1.2821549911017636
2050, 1.332308687914577
2051, 1.320174729008251
2052, 1.2983336029768646
2053, 1.2853907134767837
2054, 1.3153211454457208
2055, 1.2570781426953568
2056, 1.1786118751011163
2057, 1.2247209189451544
2058, 1.2530334897265814
2059, 1.2085423070700534
2060, 1.218249474195114
2061, 1.1980262093512377
2062, 1.176185083319851
2063, 1.1810386668823816
2064, 1.2109690988513186
2065, 1.1810386668823816
2066, 1.1325028312570782
2067, 1.303187186539395
2068, 1.711697136385698
2069, 2.112117780294451
2070, 2.0101925254813136
2071, 1.2400906002265006
2072, 0.7207571590357548
2073, 0.8226824138488917
2074, 1.0281507846626758
2075, 1.101763468694386
2076, 1.1292671088820578
2077, 1.157579679663485
2078, 1.176185083319851
2079, 1.1689047079760557
2080, 1.1689047079760557
2081, 1.176185083319851
2082, 1.176185083319851
2083, 1.1697136385698108
2084, 1.1689047079760557
2085, 1.1778029445073612
2086, 1.1802297362886265
2087, 1.1826565280698915
2088, 1.1778029445073612
2089, 1.186701181038667
2090, 1.1923636951949523
2091, 1.1955994175699725
2092, 1.1850833198511568
2093, 1.1858922504449119
2094, 1.202070862320013
2095, 1.1988351399449928
2096, 1.2247209189451544
2097, 1.2231030577576445
2098, 1.2044976541012782
2099, 1.2344280860702153
2100, 1.2530334897265814
2101, 1.246562044976541
2102, 1.2497977673515612
2103, 1.2538424203203364
2104, 1.2578870732891119
2105, 1.247370975570296
2106, 1.244944183789031
2107, 1.2271477107264197
2108, 1.1980262093512377
2109, 1.188319042226177
2110, 1.1794208056948714
2111, 1.1818475974761367
2112, 1.1648600550072803
2113, 1.1397832066008737
2114, 1.1333117618508333
2115, 1.157579679663485
2116, 1.1826565280698915
2117, 1.1405921371946286
2118, 1.130884970069568
2119, 1.1502993043196894
2120, 1.1583886102572398
2121, 1.117133149975732
2122, 1.1122795664132017
2123, 1.1244135253195275
2124, 1.115515288788222
2125, 1.1211778029445074
2126, 1.1397832066008737
2127, 1.1559618184759748
2128, 1.1478725125384242
2129, 1.1551528878822197
2130, 1.1753761527260962
2131, 1.1527260961009544
2132, 1.1203688723507523
2133, 1.160815402038505
2134, 1.176185083319851
2135, 1.1697136385698108
2136, 1.1786118751011163
2137, 1.2125869600388286
2138, 1.2053065846950333
2139, 1.2061155152887881
2140, 1.2983336029768646
2141, 1.3314997573208218
2142, 1.287817505258049
2143, 1.2942889500080894
2144, 1.2684031710079275
2145, 1.2117780294450735
2146, 1.1786118751011163
2147, 1.1656689856010354
2148, 1.1648600550072803
2149, 1.1632421938197703
2150, 1.1502993043196894
2151, 1.1511082349134445
2152, 1.1494903737259343
2153, 1.1454457207571591
2154, 1.1389742760071186
2155, 1.1373564148196085
2156, 1.0961009545381006
2157, 1.1074259828506714
2158, 1.3962142048212263
2159, 1.912311923636952
2160, 2.2520627730140754
2161, 1.8225206277301407
2162, 0.9925578385374535
2163, 0.681119559941757
2164, 0.8744539718492154
2165, 1.0378579517877367
2166, 1.0815402038505095
2167, 1.1381653454133636
2168, 1.1333117618508333
2169, 1.0710241061316939
2170, 1.013590033975085
2171, 1.1066170522569163
2172, 1.2497977673515612
2173, 1.2651674486329072
2174, 1.2271477107264197
2175, 1.2263387801326646
2176, 1.2400906002265006
2177, 1.2295745025076847
2178, 1.2044976541012782
2179, 1.1915547646011972
2180, 1.203688723507523
2181, 1.2133958906325837
2182, 1.2287655719139299
2183, 1.2400906002265006
2184, 1.2684031710079275
2185, 1.3072318395081701
2186, 1.287817505258049
2187, 1.2530334897265814
2188, 1.232810224882705
2189, 1.2562692121016017
2190, 1.2797281993204983
2191, 1.3120854230707006
2192, 1.317747937226986
2193, 1.333926549102087
2194, 1.3565766057272286
2195, 1.3403979938521275
2196, 1.346060508008413
2197, 1.362239119883514
2198, 1.3250283125707814
2199, 1.3088497006956803
2200, 1.2724478239767028
2201, 1.100954538100631
2202, 0.9027665426306423
2203, 0.9763792266623523
2204, 1.1689047079760557
2205, 1.3954052742274712
2206, 1.5175537938844847
2207, 1.4722536806342015
2208, 1.4415143180715095
2209, 1.3994499271962466
2210, 1.3104675618831905
2211, 1.2959068111955994
2212, 1.2999514641643748
2213, 1.2667853098204174
2214, 1.2433263226015208
2215, 1.261931726257887
2216, 1.2805371299142534
2217, 1.2562692121016017
2218, 1.2522245591328265
2219, 1.260313865070377
2220, 1.2781103381329881
2221, 1.3096586312894354
2222, 1.3120854230707006
2223, 1.3217925901957612
2224, 1.2991425335706197
2225, 1.2805371299142534
2226, 1.2975246723831095
2227, 1.3104675618831905
2228, 1.3282640349458017
2229, 1.3379712020708623
2230, 1.3937874130399612
2231, 1.4609286523216307
2232, 1.4568839993528555
2233, 1.4398964568839994
2234, 1.3832713153211456
2235, 1.3525319527584534
2236, 1.361430189289759
2237, 1.3525319527584534
2238, 1.3153211454457208
2239, 1.2643585180391523
2240, 1.2336191554764602
2241, 1.2651674486329072
2242, 1.287817505258049
2243, 1.275683546351723
2244, 1.2764924769454782
2245, 1.2764924769454782
2246, 1.2667853098204174
2247, 1.2336191554764602
2248, 1.2861996440705388
2249, 1.6162433263226015
2250, 2.201909076201262
2251, 2.493124089953082
2252, 1.8581135738553631
2253, 0.9189451545057434
2254, 0.7409804238796311
2255, 1.01439896456884
2256, 1.1163242193819771
2257, 1.1543439572884646
2258, 1.219058404788869
2259, 1.2360459472577252
2260, 1.2417084614140106
2261, 1.2546513509140915
2262, 1.260313865070377
2263, 1.2675942404141725
2264, 1.2627406568516422
2265, 1.2692121016016826
2266, 1.2692121016016826
2267, 1.261122795664132
2268, 1.2667853098204174
2269, 1.2797281993204983
2270, 1.2886264358518038
2271, 1.2821549911017636
2272, 1.2942889500080894
2273, 1.2975246723831095
2274, 1.290244297039314
2275, 1.2999514641643748
2276, 1.3250283125707814
2277, 1.332308687914577
2278, 1.3395890632583725
2279, 1.3541498139459633
2280, 1.3670927034460443
2281, 1.391360621258696
2282, 1.4115838861025725
2283, 1.4091570943213072
2284, 1.4107749555088174
2285, 1.4285714285714286
2286, 1.4301892897589388
2287, 1.4140106778838375
2288, 1.4107749555088174
2289, 1.405112441352532
2290, 1.3808445235398803
2291, 1.3670927034460443
2292, 1.3525319527584534
2293, 1.3436337162271477
2294, 1.3306908267270667
2295, 1.3217925901957612
2296, 1.3128943536644555
2297, 1.2983336029768646
2298, 1.2821549911017636
2299, 1.2886264358518038
2300, 1.3080407701019252
2301, 1.3128943536644555
2302, 1.3015693253518847
2303, 1.287817505258049
2304, 1.2950978806018443
2305, 1.3088497006956803
2306, 1.3015693253518847
2307, 1.304805047726905
2308, 1.320174729008251
2309, 1.3306908267270667
2310, 1.332308687914577
2311, 1.3282640349458017
2312, 1.332308687914577
2313, 1.3509140915709432
2314, 1.3646659116647792
2315, 1.3420158550396375
2316, 1.332308687914577
2317, 1.3282640349458017
2318, 1.3379712020708623
2319, 1.3581944669147388
2320, 1.3897427600711858
2321, 1.4293803591651837
2322, 1.4576929299466106
2323, 1.4568839993528555
2324, 1.4447500404465297
2325, 1.435042873321469
2326, 1.434233942727714
2327, 1.3954052742274712
2328, 1.376799870571105
2329, 1.37760880116486
2330, 1.3711373564148197
2331, 1.3557676751334735
2332, 1.3509140915709432
2333, 1.3565766057272286
2334, 1.3800355929461252
2335, 1.3679016340397994
2336, 1.3565766057272286
2337, 1.3557676751334735
2338, 1.3395890632583725
2339, 1.477916194790487
2340, 1.9373887720433587
2341, 2.449441837890309
2342, 2.3248665264520305
2343, 1.4827697783530174
2344, 0.897912959068112
2345, 0.9828506714123928
2346, 1.2044976541012782
2347, 1.2853907134767837
2348, 1.316939006633231
2349, 1.3185568678207409
2350, 1.333117618508332
2351, 1.3541498139459633
2352, 1.3646659116647792
2353, 1.3743730787898398
2354, 1.3638569810710242
2355, 1.3573855363209837
2356, 1.363048050477269
2357, 1.378417731758615
2358, 1.3711373564148197
2359, 1.361430189289759
2360, 1.37599093997735
2361, 1.3695194952273095
2362, 1.3695194952273095
2363, 1.3937874130399612
2364, 1.3840802459149004
2365, 1.3670927034460443
2366, 1.3808445235398803
2367, 1.3929784824462061
2368, 1.405921371946287
2369, 1.3937874130399612
2370, 1.4099660249150623
2371, 1.4245267756026534
2372, 1.4382785956964892
2373, 1.4536482769778354
2374, 1.4301892897589388
2375, 1.450412554602815
2376, 1.4973305290406083
2377, 1.5539556706034623
2378, 1.5280698916033004
2379, 1.3590033975084939
2380, 1.2506066979453163
2381, 1.2829639216955184
2382, 1.2950978806018443
2383, 1.3120854230707006
2384, 1.304805047726905
2385, 1.2578870732891119
2386, 1.2967157417893544
2387, 1.2983336029768646
2388, 1.2861996440705388
2389, 1.3072318395081701
2390, 1.3161300760394758
2391, 1.3428247856333926
2392, 1.333117618508332
2393, 1.2837728522892735
2394, 1.2732567545704578
2395, 1.2813460605080085
2396, 1.274065685164213
2397, 1.291053227633069
2398, 1.3080407701019252
2399, 1.3104675618831905
2400, 1.3128943536644555
2401, 1.3290729655395568
2402, 1.3258372431645364
2403, 1.3120854230707006
2404, 1.320174729008251
2405, 1.320174729008251
2406, 1.320174729008251
2407, 1.3128943536644555
2408, 1.3234104513832714
2409, 1.3306908267270667
2410, 1.3314997573208218
2411, 1.3557676751334735
2412, 1.3800355929461252
2413, 1.4140106778838375
2414, 1.405921371946287
2415, 1.3743730787898398
2416, 1.388933829477431
2417, 1.3670927034460443
2418, 1.2991425335706197
2419, 1.274874615757968
2420, 1.2950978806018443
2421, 1.3096586312894354
2422, 1.2886264358518038
2423, 1.275683546351723
2424, 1.2764924769454782
2425, 1.274874615757968
2426, 1.287817505258049
2427, 1.2506066979453163
2428, 1.217440543601359
2429, 1.2627406568516422
2430, 1.5021841126031386
2431, 1.8516421291053227
2432, 2.104837404950655
2433, 1.7610419026047566
2434, 1.0249150622876557
2435, 0.7272286037857951
2436, 0.9246076686620288
2437, 1.1527260961009544
2438, 1.186701181038667
2439, 1.2530334897265814
2440, 1.3290729655395568
2441, 1.2093512376638085
2442, 1.1381653454133636
2443, 1.1980262093512377
2444, 1.2546513509140915
2445, 1.3096586312894354
2446, 1.304805047726905
2447, 1.2497977673515612
2448, 1.3007603947581297
2449, 1.2789192687267432
2450, 1.2352370166639701
2451, 1.2700210321954377
2452, 1.3015693253518847
2453, 1.316939006633231
2454, 1.3217925901957612
2455, 1.3581944669147388
2456, 1.3549587445397184
2457, 1.3080407701019252
2458, 1.3250283125707814
2459, 1.3743730787898398
2460, 1.405921371946287
2461, 1.3962142048212263
2462, 1.435042873321469
2463, 1.4487946934153049
2464, 1.4431321792590195
2465, 1.450412554602815
2466, 1.4463679016340398
2467, 1.447176832227795
2468, 1.4690179582591814
2469, 1.4860055007280375
2470, 1.4423232486652646
2471, 1.3994499271962466
2472, 1.4091570943213072
2473, 1.391360621258696
2474, 1.3840802459149004
2475, 1.4091570943213072
2476, 1.3840802459149004
2477, 1.3670927034460443
2478, 1.3573855363209837
2479, 1.3840802459149004
2480, 1.37599093997735
2481, 1.3541498139459633
2482, 1.333117618508332
2483, 1.3428247856333926
2484, 1.3986409966024915
2485, 1.333117618508332
2486, 1.2918621582268242
2487, 1.316939006633231
2488, 1.346869438602168
2489, 1.3703284258210646
2490, 1.3379712020708623
2491, 1.3581944669147388
2492, 1.3962142048212263
2493, 1.4253357061964083
2494, 1.4811519171655072
2495, 1.5110823491344443
2496, 1.4301892897589388
2497, 1.289435366445559
2498, 1.3266461737582915
2499, 1.4253357061964083
2500, 1.4706358194466915
2501, 1.44960362400906
2502, 1.4083481637275521
2503, 1.4115838861025725
2504, 1.447176832227795
2505, 1.4552661381653453
2506, 1.4140106778838375
2507, 1.4091570943213072
2508, 1.3581944669147388
2509, 1.3832713153211456
2510, 1.3929784824462061
2511, 1.4091570943213072
2512, 1.4706358194466915
2513, 1.421291053227633
2514, 1.244944183789031
2515, 1.2538424203203364
2516, 1.3792266623523701
2517, 1.3120854230707006
2518, 1.2506066979453163
2519, 1.3226015207895163
2520, 1.567707490697298
2521, 1.9462870085746642
2522, 2.132341045138327
2523, 1.7658954861672869
2524, 1.0993366769131208
2525, 0.8865879307555412
2526, 1.0912473709755703
2527, 1.244944183789031
2528, 1.2797281993204983
2529, 1.3153211454457208
2530, 1.333117618508332
2531, 1.348487299789678
2532, 1.3573855363209837
2533, 1.3606212586960038
2534, 1.375182009383595
2535, 1.363048050477269
2536, 1.3646659116647792
2537, 1.3670927034460443
2538, 1.3679016340397994
2539, 1.37760880116486
2540, 1.37760880116486
2541, 1.378417731758615
2542, 1.3727552176023297
2543, 1.3606212586960038
2544, 1.3646659116647792
2545, 1.3565766057272286
2546, 1.3581944669147388
2547, 1.3743730787898398
2548, 1.3695194952273095
2549, 1.378417731758615
2550, 1.3929784824462061
2551, 1.3945963436337163
2552, 1.4067303025400422
2553, 1.4269535673839184
2554, 1.434233942727714
2555, 1.44960362400906
2556, 1.447176832227795
2557, 1.4585018605403657
2558, 1.4617375829153858
2559, 1.4520304157903252
2560, 1.4358518039152242
2561, 1.4253357061964083
2562, 1.4010677883837566
2563, 1.391360621258696
2564, 1.3792266623523701
2565, 1.376799870571105
2566, 1.4229089144151432
2567, 1.5547646011972174
2568, 1.8298010030739362
2569, 2.143666073450898
2570, 2.1485196570134284
2571, 1.7197864423232487
2572, 1.1325028312570782
2573, 0.5630156932535189
2574, 0.28150784662675943
2575, 0.3874777544086717
2576, 0.5727228603785796
2577, 0.7603947581297524
2578, 0.9092379873806827
2579, 0.9391684193496198
2580, 0.897912959068112
2581, 0.9181362239119883
2582, 1.0605080084128782
2583, 1.2538424203203364
2584, 1.4091570943213072
2585, 1.4730626112279566
2586, 1.4908590842905678
2587, 1.506228765571914
2588, 1.534541336353341
2589, 1.5555735317909722
2590, 1.606536159197541
2591, 1.6413201747290083
2592, 1.6510273418540689
2593, 1.6623523701666396
2594, 1.6542630642290892
2595, 1.6615434395728848
2596, 1.6777220514479858
2597, 1.7052256916356576
2598, 1.7327293318233297
2599, 1.7925901957612036
2600, 1.8589225044491182
2601, 1.8718653939491992
2602, 1.8807636304805049
2603, 1.871056463355444
2604, 1.9017958259181362
2605, 2.026371137356415
2606, 2.0563015693253517
2607, 1.9883513994499271
2608, 1.8961333117618508
2609, 1.8006795016987542
2610, 1.7230221646982689
2611, 1.6591166477916195
2612, 1.5960200614787252
2613, 1.5450574340721566
2614, 1.4981394596343633
2615, 1.476298333602977
2616, 1.4690179582591814
2617, 1.4585018605403657
2618, 1.450412554602815
2619, 1.4528393463840803
2620, 1.4585018605403657
2621, 1.4544572075715902
2622, 1.4431321792590195
2623, 1.4407053874777545
2624, 1.4415143180715095
2625, 1.4439411098527746
2626, 1.450412554602815
2627, 1.4706358194466915
2628, 1.4714447500404466
2629, 1.4714447500404466
2630, 1.4754894030092218
2631, 1.4884322925093028
2632, 1.4940948066655881
2633, 1.4997573208218735
2634, 1.507846626759424
2635, 1.5248341692282803
2636, 1.5321145445720756
2637, 1.5280698916033004
2638, 1.5442485034784015
2639, 1.5563824623847273
2640, 1.5863128943536644
2641, 1.578223588416114
2642, 1.5709432130723184
2643, 1.5879307555411746
2644, 1.5766057272286038
2645, 1.5749878660410936
2646, 1.5749878660410936
2647, 1.5903575473224398
2648, 1.6057272286037858
2649, 1.6210969098851318
2650, 1.5685164212910532
2651, 1.4099660249150623
2652, 1.3824623847273905
2653, 1.435042873321469
2654, 1.637275521760233
2655, 1.8233295583238958
2656, 1.7553793884484712
2657, 1.7003721080731273
2658, 1.6672059537291701
2659, 1.6429380359165184
2660, 1.6291862158226824
2661, 1.6437469665102735
2662, 1.5410127811033814
2663, 1.3371622714771072
2664, 1.519171655071995
2665, 1.7472900825109206
2666, 1.7011810386668824
2667, 1.6866202879792913
2668, 1.6930917327293318
2669, 1.6607345089791297
2670, 1.6000647144475004
2671, 1.6024915062287655
2672, 1.6202879792913767
2673, 1.6469826888852936
2674, 1.682575635010516
2675, 1.6833845656042712
2676, 1.6728684678854555
2677, 1.6607345089791297
2678, 1.6583077171978644
2679, 1.6672059537291701
2680, 1.6566898560103542
2681, 1.6566898560103542
2682, 1.6744863290729655
2683, 1.679339912635496
2684, 1.682575635010516
2685, 1.6922828021355767
2686, 1.6712506066979453
2687, 1.649409480666559
2688, 1.6332308687914576
2689, 1.6041093674162756
2690, 1.6041093674162756
2691, 1.6178611875101117
2692, 1.6146254651350913
2693, 1.6041093674162756
2694, 1.6008736450412555
2695, 1.6041093674162756
2696, 1.608154020385051
2697, 1.5838861025723994
2698, 1.6210969098851318
2699, 1.8532599902928328
2700, 2.2375020223264843
2701, 2.404141724640026
2702, 1.9608477592622553
2703, 1.2829639216955184
2704, 1.117942080569487
2705, 1.3112764924769456
2706, 1.4528393463840803
2707, 1.522407377447015
2708, 1.5830771719786443
2709, 1.5903575473224398
2710, 1.6033004368225205
2711, 1.6162433263226015
2712, 1.5660896295097881
2713, 1.5588092541659926
2714, 1.59359326969746
2715, 1.59359326969746
2716, 1.5895486167286847
2717, 1.6138165345413364
2718, 1.6445558971040284
2719, 1.59682899207248
2720, 1.5313056139783208
2721, 1.5272609610095453
2722, 1.5563824623847273
2723, 1.5580003235722375
2724, 1.579841449603624
2725, 1.6210969098851318
2726, 1.5879307555411746
2727, 1.5830771719786443
2728, 1.6162433263226015
2729, 1.6162433263226015
2730, 1.6024915062287655
2731, 1.608154020385051
2732, 1.6113897427600712
2733, 1.6251415628539072
2734, 1.6469826888852936
2735, 1.6267594240414172
2736, 1.5952111308849701
2737, 1.5960200614787252
2738, 1.5822682413848892
2739, 1.6178611875101117
2740, 1.6599255783853746
2741, 1.6510273418540689
2742, 1.6704416761041903
2743, 1.608154020385051
2744, 1.5410127811033814
2745, 1.59359326969746
2746, 1.6486005500728038
2747, 1.5693253518848083
2748, 1.534541336353341
2749, 1.5668985601035432
2750, 1.5733700048535835
2751, 1.578223588416114
2752, 1.5911664779161947
2753, 1.5685164212910532
2754, 1.578223588416114
2755, 1.6000647144475004
2756, 1.6178611875101117
2757, 1.610580812166316
2758, 1.6008736450412555
2759, 1.5960200614787252
2760, 1.6121986733538263
2761, 1.6186701181038667
2762, 1.5790325190098689
2763, 1.59682899207248
2764, 1.6138165345413364
2765, 1.6016825756350106
2766, 1.6154343957288464
2767, 1.5426306422908915
2768, 1.548293156447177
2769, 1.6995631774793722
2770, 1.7189775117294936
2771, 1.6728684678854555
2772, 1.5952111308849701
2773, 1.507846626759424
2774, 1.6146254651350913
2775, 1.8338456560427114
2776, 1.8945154505743407
2777, 1.7869276816049182
2778, 1.7327293318233297
2779, 1.7602329720110015
2780, 1.740009707167125
2781, 1.5887396861349297
2782, 1.4382785956964892
2783, 1.5029930431968936
2784, 1.7723669309173273
2785, 1.7747937226985924
2786, 1.6696327455104352
2787, 1.697945316291862
2788, 1.638084452353988
2789, 1.3905516906649409
2790, 1.5879307555411746
2791, 1.753761527260961
2792, 1.6340397993852127
2793, 1.9640834816372754
2794, 2.2512538424203203
2795, 2.364504125546028
2796, 1.9737906487623362
2797, 1.088820579194305
2798, 1.1138974276007119
2799, 1.738391845979615
2800, 1.838699239605242
2801, 1.7942080569487138
2802, 1.81119559941757
2803, 1.869438602167934
2804, 1.9042226176994015
2805, 1.8880440058243002
2806, 1.9899692606374373
2807, 1.9333441190745835
2808, 1.8475974761365475
2809, 2.029606859731435
2810, 2.1282963921695517
2811, 2.0773337647629835
2812, 2.1622714771072644
2813, 2.2925093027018284
2814, 2.3499433748584373
2815, 2.1040284743569
2816, 1.941433425012134
2817, 2.1396214204821224
2818, 2.1282963921695517
2819, 2.373402362077334
2820, 2.5004044652968775
2821, 2.450250768484064
2822, 2.31839508170199
2823, 2.4154667529525966
2824, 2.507684840640673
2825, 2.2552984953890958
2826, 2.10079275198188
2827, 2.2455913282640347
2828, 2.7220514479857627
2829, 2.7802944507361267
2830, 2.4858437146092864
2831, 2.3628862643585182
2832, 2.1412392816696326
2833, 2.275521760232972
2834, 2.5982850671412394
2835, 2.506875910046918
2836, 2.4300275036401877
2837, 2.1614625465135093
2838, 1.9834978158873968
2839, 2.2981718168581136
2840, 2.6799870571105
2841, 2.625788707328911
2842, 2.2819932049830123
2843, 2.0781426953567386
2844, 2.1994822844199966
2845, 2.3758291538585987
2846, 2.4809901310467564
2847, 2.3127325675457047
2848, 2.348325513670927
2849, 2.2698592460766864
2850, 2.3895809739524347
2851, 2.4405436013590034
2852, 2.332955832389581
2853, 2.495550881734347
2854, 2.364504125546028
2855, 2.231030577576444
2856, 2.1525643099822034
2857, 2.3378094159521114
2858, 2.82883028636143
2859, 2.6452030415790326
2860, 2.520627730140754
2861, 2.582915385859893
2862, 2.4098042387963114
2863, 2.066817667044168
2864, 2.685649571266785
2865, 2.9089144151431805
2866, 2.6767513347354797
2867, 2.770587283611066
2868, 2.6452030415790326
2869, 2.621744054360136
2870, 2.777058728361107
2871, 2.697783530173111
2872, 2.5254813137032843
2873, 2.634686943860217
2874, 2.777867658954862
2875, 2.926710888205792
2876, 2.809415952111309
2877, 2.8199320498301246
2878, 2.883837566736774
2879, 2.8183141886426144
2880, 3.004368225206277
2881, 3.012457531143828
2882, 2.8595696489241225
2883, 3.187995469988675
2884, 3.7186539394919915
2885, 3.796311276492477
2886, 3.417731758615111
2887, 2.6751334735479695
2888, 2.4081863776088013
2889, 2.7519818799547
2890, 2.9056786927681606
2891, 2.9954699886749716
2892, 2.9024429703931403
2893, 2.6605727228603784
2894, 2.5910046917974436
2895, 3.056139783206601
2896, 3.1960847759262254
2897, 2.959068111955994
2898, 2.9477430836434233
2899, 2.9364180553308525
2900, 2.9647306261122797
2901, 2.954214528393464
2902, 3.004368225206277
2903, 3.04481475489403
2904, 2.9930431968937063
2905, 2.9679663484873
2906, 2.9784824462061157
2907, 2.945316291862158
2908, 3.028636143018929
2909, 3.073127325675457
2910, 2.9606859731435042
2911, 2.9776735156123606
2912, 2.9938521274874614
2913, 3.044005824300275
2914, 3.069891603300437
2915, 3.018120045300113
2916, 2.985762821549911
2917, 2.9614949037372593
2918, 3.001132502831257
2919, 3.018928975893868
2920, 2.886264358518039
2921, 2.8717036078304483
2922, 2.870085746642938
2923, 2.797281993204983
2924, 2.8077980909237987
2925, 2.7908105484549424
2926, 2.7414657822358843
2927, 2.692929946610581
2928, 2.6371137356414818
2929, 2.633878013266462
2930, 2.640349458016502
2931, 2.613654748422585
2932, 2.5311438278595695
2933, 2.506875910046918
2934, 2.508493771234428
2935, 2.445397184921534
2936, 2.4138488917650864
2937, 2.495550881734347
2938, 2.3847273903899047
2939, 2.362077333764763
2940, 2.3709755702960686
2941, 2.302216469826889
2942, 2.3135414981394598
2943, 2.3758291538585987
2944, 2.3127325675457047
2945, 2.184921533732406
2946, 2.24478239767028
2947, 2.2205144798576284
2948, 2.185730464326161
2949, 2.17278757482608
2950, 2.150946448794693
2951, 2.1404303510758775
2952, 2.0684355282316775
2953, 2.0894677236693093
2954, 2.1226338780132665
2955, 2.1517553793884483
2956, 2.143666073450898
2957, 1.9956317747937227
2958, 1.943051286199644
2959, 2.0069568031062937
2960, 1.9964407053874778
2961, 1.8799546998867498
2962, 1.8014884322925093
2963, 1.8354635172302216
2964, 1.8605403656366284
2965, 1.8306099336676913
2966, 1.871056463355444
2967, 1.8581135738553631
2968, 1.8653939491991587
2969, 1.7885455427924284
2970, 1.7335382624170845
2971, 1.782883028636143
2972, 1.9786442323248665
2973, 2.379873806827374
2974, 2.561883190422262
2975, 2.191392978482446
2976, 1.536159197540851
2977, 1.3347354796958422
2978, 1.4868144313217926
2979, 1.6194790486976218
2980, 1.7214043035107587
2981, 1.7189775117294936
2982, 1.6696327455104352
2983, 1.711697136385698
2984, 1.7343471930108396
2985, 1.7432454295421453
2986, 1.724640025885779
2987, 1.6922828021355767
2988, 1.7133149975732083
2989, 1.7133149975732083
2990, 1.6898560103543117
2991, 1.7222132341045138
2992, 1.7262578870732892
2993, 1.7011810386668824
2994, 1.694709593916842
2995, 1.7173596505419835
2996, 1.6963274551043521
2997, 1.6413201747290083
2998, 1.6574987866041093
2999, 1.7205953729170038
3000, 1.7610419026047566
3001, 1.7197864423232487
3002, 1.7052256916356576
3003, 1.7173596505419835
3004, 1.7359650541983498
3005, 1.7294936094483093
3006, 1.766704416761042
3007, 1.7764115838861025
3008, 1.795825918136224
3009, 1.7448632907296553
3010, 1.6882381491668015
3011, 1.711697136385698
3012, 1.7165507199482284
3013, 1.7294936094483093
3014, 1.724640025885779
3015, 1.7157417893544733
3016, 1.6801488432292508
3017, 1.6405112441352532
3018, 1.6477916194790487
3019, 1.637275521760233
3020, 1.6477916194790487
3021, 1.695518524510597
3022, 1.6413201747290083
3023, 1.666397023135415
3024, 1.8888529364180553
3025, 2.188157256107426
3026, 2.32163080407701
3027, 2.0959391684193496
3028, 1.6583077171978644
3029, 1.1858922504449119
3030, 0.8445235398802783
3031, 0.8202556220676266
3032, 0.8809254165992558
3033, 0.9925578385374535
3034, 1.1672868467885456
3035, 1.231192363695195
3036, 1.189127972819932
3037, 1.1769940139136061
3038, 1.202879792913768
3039, 1.3242193819770263
3040, 1.5668985601035432
3041, 1.7036078304481475
3042, 1.7254489564795341
3043, 1.7294936094483093
3044, 1.6615434395728848
3045, 1.6858113573855362
3046, 1.8047241546675294
3047, 1.8039152240737744
3048, 1.7278757482607991
3049, 1.695518524510597
3050, 1.7772205144798576
3051, 1.7739847921048375
3052, 1.7780294450736127
3053, 1.8168581135738553
3054, 1.8031062934800195
3055, 1.8492153373240576
3056, 1.942242355605889
3057, 1.9891603300436822
3058, 2.001294288950008
3059, 2.044976541012781
3060, 2.058728361106617
3061, 2.1420482122633877
3062, 2.1517553793884483
3063, 2.026371137356415
3064, 2.0045300113250284
3065, 2.0190907620126195
3066, 1.9592298980747451
3067, 1.8605403656366284
3068, 1.8022973628862644
3069, 1.7367739847921049
3070, 1.767513347354797
3071, 1.7845008898236532
3072, 1.7068435528231678
3073, 1.695518524510597
3074, 1.6583077171978644
3075, 1.6728684678854555
3076, 1.681766704416761
3077, 1.6308040770101926
3078, 1.610580812166316
3079, 1.6858113573855362
3080, 1.7125060669794532
3081, 1.680957773823006
3082, 1.6259504934476623
3083, 1.66882381491668
3084, 1.7060346222294127
3085, 1.5879307555411746
3086, 1.6623523701666396
3087, 1.723831095292024
3088, 1.6210969098851318
3089, 1.6283772852289273
3090, 1.6413201747290083
3091, 1.6574987866041093
3092, 1.6631613007603947
3093, 1.6769131208542307
3094, 1.723831095292024
3095, 1.6898560103543117
3096, 1.6405112441352532
3097, 1.637275521760233
3098, 1.66558809254166
3099, 1.680957773823006
3100, 1.695518524510597
3101, 1.7027988998543926
3102, 1.7052256916356576
3103, 1.7222132341045138
3104, 1.711697136385698
3105, 1.7125060669794532
3106, 1.7189775117294936
3107, 1.6939006633230869
3108, 1.7181685811357386
3109, 1.7845008898236532
3110, 1.7456722213234104
3111, 1.7205953729170038
3112, 1.7278757482607991
3113, 1.7513347354796958
3114, 1.7925901957612036
3115, 1.7796473062611229
3116, 1.7343471930108396
3117, 1.7594240414172464
3118, 1.7602329720110015
3119, 1.782074098042388
3120, 1.8613492962303835
3121, 1.8168581135738553
3122, 1.7796473062611229
3123, 1.8006795016987542
3124, 1.8273742112926712
3125, 1.8370813784177318
3126, 1.912311923636952
3127, 1.8322277948552015
3128, 1.7569972496359811
3129, 1.8653939491991587
3130, 1.913929784824462
3131, 1.897751172949361
3132, 1.8937065199805856
3133, 1.9592298980747451
3134, 1.968937065199806
3135, 1.9972496359812328
3136, 1.984306746481152
3137, 1.9907781912311924
3138, 1.9381977026371138
3139, 1.9616566898560104
3140, 1.939815563824624
3141, 1.8791457692929947
3142, 1.899369034136871
3143, 1.939815563824624
3144, 1.8670118103866689
3145, 1.8225206277301407
3146, 1.8815725610742597
3147, 1.8791457692929947
3148, 1.8872350752305451
3149, 1.929299466105808
3150, 1.8751011163242193
3151, 1.8807636304805049
3152, 1.9810710241061318
3153, 2.274712829639217
3154, 2.68484064067303
3155, 2.6452030415790326
3156, 1.998058566574988
3157, 1.5248341692282803
3158, 1.59682899207248
3159, 1.769131208542307
3160, 1.9106940624494417
3161, 1.9786442323248665
3162, 1.9810710241061318
3163, 1.9155476460119722
3164, 1.942242355605889
3165, 2.0061478725125386
3166, 2.02879792913768
3167, 2.0085746642938034
3168, 2.002103219543763
3169, 2.001294288950008
3170, 1.9681281346060508
3171, 1.9948228441999676
3172, 2.0684355282316775
3173, 2.040931888044006
3174, 2.0255622067626597
3175, 2.0239443455751496
3176, 2.0563015693253517
3177, 2.116162433263226
3178, 2.103219543763145
3179, 2.101601682575635
3180, 2.087849862481799
3181, 2.1226338780132665
3182, 2.2593431483578708
3183, 2.242355605889015
3184, 2.184112603138651
3185, 2.1541821711697136
3186, 2.084614140106779
3187, 2.1517553793884483
3188, 2.2245591328264034
3189, 2.2067626597637924
3190, 2.303025400420644
3191, 2.7163889338294775
3192, 2.7317586151108233
3193, 2.256107425982851
3194, 2.17116971363857
3195, 2.2650056625141564
3196, 2.290082510920563
3197, 2.3402362077333763
3198, 2.3944345575149653
3199, 2.3580326807959877
3200, 2.3952434881087203
3201, 2.578870732891118
3202, 2.520627730140754
3203, 2.483416922828021
3204, 2.507684840640673
3205, 2.2366930917327292
3206, 2.201909076201262
3207, 2.345089791295907
3208, 2.3717845008898237
3209, 2.3693577091085585
3210, 2.2989807474518686
3211, 2.411422099983821
3212, 2.4267917812651674
3213, 2.3256754570457856
3214, 2.3313379712020708
3215, 2.306261122795664
3216, 2.302216469826889
3217, 2.2552984953890958
3218, 2.24963598123281
3219, 2.228603785795179
3220, 2.2002912150137517
3221, 2.235884161138974
3222, 2.2197055492638733
3223, 2.2188966186701182
3224, 2.2480181200453
3225, 2.2197055492638733
3226, 2.191392978482446
3227, 2.163889338294774
3228, 2.0967480990131047
3229, 2.02718006795017
3230, 1.9867335382624172
3231, 1.955994175699725
3232, 1.9074583400744216
3233, 1.8726743245429542
3234, 1.8645850186054036
3235, 1.824947419511406
3236, 1.8136223911988352
3237, 1.812004530011325
3238, 1.8160491829801002
3239, 1.7731758615110824
3240, 1.7278757482607991
3241, 1.841934961980262
3242, 1.9665102734185407
3243, 2.301407539233134
3244, 2.680795987704255
3245, 2.248827050639055
3246, 1.4819608477592623
3247, 1.218249474195114
3248, 1.3428247856333926
3249, 1.519171655071995
3250, 1.5992557838537453
3251, 1.623523701666397
3252, 1.638893382947743
3253, 1.6267594240414172
3254, 1.5822682413848892
3255, 1.5248341692282803
3256, 1.581459310791134
3257, 1.6502184112603138
3258, 1.6752952596667205
3259, 1.610580812166316
3260, 1.4819608477592623
3261, 1.551528878822197
3262, 1.5248341692282803
3263, 1.418055330852613
3264, 1.6704416761041903
3265, 1.4738715418217117
3266, 1.058890147225368
3267, 1.6000647144475004
3268, 1.9106940624494417
3269, 1.750525804885941
3270, 1.984306746481152
3271, 1.9778353017311114
3272, 1.8759100469179744
3273, 1.9608477592622553
3274, 1.9074583400744216
3275, 1.565280698916033
3276, 1.8184759747613655
3277, 2.4106131693900665
3278, 2.2965539556706034
3279, 1.9915871218249475
3280, 2.0239443455751496
3281, 2.379064876233619
3282, 2.873321469017958
3283, 3.016502184112603
3284, 3.0642290891441513
3285, 3.0618022973628864
3286, 3.220352693738877
3287, 3.0990131046756186
3288, 3.0076039475812975
3289, 3.247047403332794
3290, 3.9063258372431644
3291, 4.314835787089468
3292, 4.349619802620935
3293, 4.2946125222455915
3294, 4.290567869276816
3295, 4.433748584371461
3296, 4.479048697621744
3297, 4.504125546028151
3298, 4.6804724154667525
3299, 4.523539880278272
3300, 4.8244620611551525
3301, 5.0
3302, 4.812328102248827
3303, 4.78563339265491
3304, 4.77430836434234
3305, 4.729008251092056
3306, 4.684517068435528
3307, 4.622229412716389
3308, 4.677236693091733
3309, 4.78239767027989
3310, 4.6173758291538585
3311, 4.606859731435043
3312, 4.820417408186378
3313, 4.755702960685973
3314, 4.724154667529526
3315, 4.6723831095292025
3316, 4.619802620935124
3317, 4.576929299466106
3318, 4.5372917003721085
3319, 4.502507684840641
3320, 4.460443293965378
3321, 4.429703931402686
3322, 4.377932373402362
3323, 4.359326969745996
3324, 4.303510758776897
3325, 4.27843391037049
3326, 4.250121339589064
3327, 4.1854068920886585
3328, 4.094806665588092
3329, 4.0333279404627085
3330, 4.089953082025562
3331, 4.309173272933182
3332, 4.573693577091086
3333, 4.591490050153697
3334, 4.034136871056464
3335, 3.3789030901148682
3336, 3.202556220676266
3337, 3.377285228927358
3338, 3.4727390389904547
3339, 3.493771234428086
3340, 3.4258210645526614
3341, 3.4104513832713153
3342, 3.3942727713962144
3343, 3.358679825270992
3344, 3.3125707814269534
3345, 3.2430027503640186
3346, 3.1847597476136547
3347, 3.162109690988513
3348, 3.101439896456884
3349, 3.025400420643909
3350, 2.9517877366121987
3351, 2.895162595049345
3352, 2.8466267594240415
3353, 2.75683546351723
3354, 2.6638084452353987
3355, 2.6363048050477267
3356, 2.565118912797282
3357, 2.4745186862967157
3358, 2.4227471282963924
3359, 2.3879631127649246
3360, 2.3442808607021517
3361, 2.2650056625141564
3362, 2.2544895647953407
3363, 2.234266299951464
3364, 2.1865393949199157
3365, 2.1493285876071835
3366, 2.1210160168257564
3367, 2.101601682575635
3368, 2.0490211939815564
3369, 1.9762174405436013
3370, 1.9503316615434396
3371, 1.898560103543116
3372, 1.8807636304805049
3373, 1.8362724478239767
3374, 1.8079598770425498
3375, 1.7650865555735318
3376, 1.7294936094483093
3377, 1.7076524834169229
3378, 1.6882381491668015
3379, 1.6291862158226824
3380, 1.5741789354473386
3381, 1.5733700048535835
3382, 1.577414657822359
3383, 1.5426306422908915
3384, 1.5013751820093837
3385, 1.4835787089467725
3386, 1.4269535673839184
3387, 1.3873159682899208
3388, 1.3743730787898398
3389, 1.348487299789678
3390, 1.3970231354149814
3391, 1.4843876395405273
3392, 1.4657822358841612
3393, 1.4382785956964892
3394, 1.4908590842905678
3395, 1.551528878822197
3396, 1.5871218249474195
3397, 1.6162433263226015
3398, 1.6421291053227633
3399, 1.7027988998543926
3400, 1.6971363856981072
3401, 1.7456722213234104
3402, 1.7974437793237341
3403, 1.754570457854716
3404, 1.7125060669794532
3405, 1.7044167610419025
3406, 1.7125060669794532
3407, 1.6914738715418216
3408, 1.6777220514479858
3409, 1.6736773984792104
3410, 1.6210969098851318
3411, 1.5838861025723994
3412, 1.5846950331661545
3413, 1.5604271153535028
3414, 1.5580003235722375
3415, 1.564471768322278
3416, 1.5248341692282803
3417, 1.477916194790487
3418, 1.4382785956964892
3419, 1.5256430998220352
3420, 1.8734832551367093
3421, 2.300598608639379
3422, 2.2277948552014237
3423, 1.5863128943536644
3424, 1.056463355444103
3425, 1.0362400906002265
3426, 1.2506066979453163
3427, 1.3242193819770263
3428, 1.3209836596020061
3429, 1.3403979938521275
3430, 1.4132017472900824
3431, 1.4520304157903252
3432, 1.4463679016340398
3433, 1.4164374696651028
3434, 1.4568839993528555
3435, 1.478725125384242
3436, 1.4164374696651028
3437, 1.405921371946287
3438, 1.4002588577900017
3439, 1.4099660249150623
3440, 1.3549587445397184
3441, 1.3420158550396375
3442, 1.3638569810710242
3443, 1.3638569810710242
3444, 1.3743730787898398
3445, 1.3735641481960847
3446, 1.376799870571105
3447, 1.4196731920401229
3448, 1.4277624979776735
3449, 1.4382785956964892
3450, 1.4601197217278759
3451, 1.4455589710402847
3452, 1.4455589710402847
3453, 1.4487946934153049
3454, 1.5110823491344443
3455, 1.4973305290406083
3456, 1.4358518039152242
3457, 1.4949037372593432
3458, 1.5337324057595858
3459, 1.4876233619155477
3460, 1.4835787089467725
3461, 1.4843876395405273
3462, 1.476298333602977
3463, 1.4989483902281184
3464, 1.493285876071833
3465, 1.4674000970716712
3466, 1.4593107911341208
3467, 1.4706358194466915
3468, 1.4973305290406083
3469, 1.478725125384242
3470, 1.4706358194466915
3471, 1.478725125384242
3472, 1.4949037372593432
3473, 1.622714771072642
3474, 1.9090762012619318
3475, 2.171978644232325
3476, 2.184921533732406
3477, 1.8298010030739362
3478, 1.3056139783206602
3479, 0.8186377608801165
3480, 0.5832389580973952
3481, 0.6131693900663323
3482, 0.7466429380359165
3483, 0.9068111955994176
3484, 1.013590033975085
3485, 1.0063096586312894
3486, 1.001456075068759
3487, 1.0321954376314513
3488, 1.1114706358194466
3489, 1.3606212586960038
3490, 1.6000647144475004
3491, 1.6736773984792104
3492, 1.6898560103543117
3493, 1.6510273418540689
3494, 1.6591166477916195
3495, 1.6631613007603947
3496, 1.622714771072642
3497, 1.607345089791296
3498, 1.578223588416114
3499, 1.5434395728846464
3500, 1.5232163080407701
3501, 1.4957126678530983
3502, 1.4940948066655881
3503, 1.5110823491344443
3504, 1.550719948228442
3505, 1.5911664779161947
3506, 1.608154020385051
3507, 1.6599255783853746
3508, 1.73758291538586
3509, 1.7893544733861835
3510, 1.8103866688238148
3511, 1.8022973628862644
3512, 1.7877366121986733
3513, 1.7731758615110824
3514, 1.7278757482607991
3515, 1.6583077171978644
3516, 1.6332308687914576
3517, 1.680957773823006
3518, 1.5628539071347678
3519, 1.4601197217278759
3520, 1.5175537938844847
3521, 1.507846626759424
3522, 1.4730626112279566
3523, 1.420482122633878
3524, 1.404303510758777
3525, 1.466591166477916
3526, 1.4423232486652646
3527, 1.4609286523216307
3528, 1.4900501536968127
3529, 1.4876233619155477
3530, 1.5660896295097881
3531, 1.6534541336353341
3532, 1.666397023135415
3533, 1.6016825756350106
3534, 1.6340397993852127
3535, 1.6299951464164375
3536, 1.581459310791134
3537, 1.639702313541498
3538, 1.6599255783853746
3539, 1.7157417893544733
3540, 1.7286846788545542
3541, 1.6243326322601521
3542, 1.6599255783853746
3543, 1.8200938359488756
3544, 1.7901634039799386
3545, 1.6202879792913767
3546, 1.5207895162595049
3547, 1.5612360459472576
3548, 1.638084452353988
3549, 1.5685164212910532
3550, 1.5029930431968936
3551, 1.492476945478078
3552, 1.5668985601035432
3553, 1.5571913929784824
3554, 1.466591166477916
3555, 1.4220999838213881
3556, 1.447176832227795
3557, 1.4674000970716712
3558, 1.3679016340397994
3559, 1.2861996440705388
3560, 1.3137032842582106
3561, 1.2797281993204983
3562, 1.2538424203203364
3563, 1.2667853098204174
3564, 1.1753761527260962
3565, 1.1276492476945479
3566, 1.2101601682575636
3567, 1.2125869600388286
3568, 1.0896295097880602
3569, 0.8154020385050963
3570, 0.7571590357547322
3571, 1.1074259828506714
3572, 1.1632421938197703
3573, 1.045947257725287
3574, 1.115515288788222
3575, 1.2085423070700534
3576, 1.215822682413849
3577, 1.0847759262255299
3578, 0.8323895809739524
3579, 0.47646011972172786
3580, 0.5524995955347031
3581, 0.8145931079113412
3582, 0.8348163727552176
3583, 0.9221808768807637
3584, 1.3137032842582106
3585, 1.2942889500080894
3586, 1.0095453810063097
3587, 1.2950978806018443
3588, 1.421291053227633
3589, 1.2967157417893544
3590, 1.4487946934153049
3591, 1.2506066979453163
3592, 1.0823491344442646
3593, 1.2392816696327456
3594, 1.274065685164213
3595, 0.783853745348649
3596, 0.9739524348810872
3597, 1.6283772852289273
3598, 1.9220190907620127
3599, 2.8579517877366123
3600, 2.709917489079437
3601, 1.6761041902604756
3602, 1.2125869600388286
3603, 1.6308040770101926
3604, 1.998058566574988
3605, 1.681766704416761
3606, 1.4585018605403657
3607, 2.027988998543925
3608, 2.372593431483579
3609, 3.2235884161138975
3610, 3.5293641805533085
3611, 3.278595696489241
3612, 2.908105484549426
3613, 2.9768645850186055
3614, 3.278595696489241
3615, 3.637760880116486
3616, 3.6143018928975894
3617, 3.3821388124898886
3618, 3.6482769778353017
3619, 4.090762012619317
3620, 4.085908429056787
3621, 4.187833683869924
3622, 4.002588577900016
3623, 4.20320336515127
3624, 4.378741303996117
3625, 4.284096424526775
3626, 4.219381977026371
3627, 4.279242840964245
3628, 3.9038990454618996
3629, 3.9346384080245915
3630, 4.5372917003721085
3631, 4.637599093997735
3632, 4.224235560588902
3633, 4.146578223588416
3634, 4.062449441837891
3635, 4.108558485681929
3636, 4.565604271153535
3637, 4.188642614463679
3638, 4.1409157094321305
3639, 4.403818152402524
3640, 4.27358032680796
3641, 4.175699724963598
3642, 4.12959068111956
3643, 4.12635495874454
3644, 4.115838861025724
3645, 4.075392331337971
3646, 4.040608315806503
3647, 4.011486814431322
3648, 3.997734994337486
3649, 3.9524348810872025
3650, 3.9459634363371623
3651, 3.928975893868306
3652, 3.9047079760556542
3653, 3.931402685649571
3654, 3.941918783368387
3655, 3.9038990454618996
3656, 3.9500080893059377
3657, 3.9742760071185894
3658, 3.9346384080245915
3659, 3.8917650865555737
3660, 3.8901472253680636
3661, 3.8602167933991263
3662, 3.753437955023459
3663, 3.638569810710241
3664, 3.3869923960524186
3665, 3.8901472253680636
3666, 4.026047565118913
3667, 3.742921857304643
3668, 3.7008574664293805
3669, 3.6345251577414657
3670, 3.513185568678207
3671, 3.4832551367092703
3672, 3.40802459149005
3673, 3.220352693738877
3674, 3.0391522407377445
3675, 2.841773175861511
3676, 2.811842743892574
3677, 2.809415952111309
3678, 2.692929946610581
3679, 2.567545704578547
3680, 2.451868629671574
3681, 2.4009060022650055
3682, 2.320821873483255
3683, 2.2261769940139136
3684, 2.1420482122633877
3685, 2.126678530982042
3686, 2.345089791295907
3687, 2.7495550881734347
3688, 2.7600711858922504
3689, 2.10564633554441
3690, 1.508655557353179
3691, 1.4455589710402847
3692, 1.6413201747290083
3693, 1.66558809254166
3694, 1.6647791619479049
3695, 1.7133149975732083
3696, 1.6469826888852936
3697, 1.6647791619479049
3698, 1.6251415628539072
3699, 1.567707490697298
3700, 1.6170522569163566
3701, 1.666397023135415
3702, 1.5927843391037049
3703, 1.507037696165669
3704, 1.4989483902281184
3705, 1.5296877527908106
3706, 1.5013751820093837
3707, 1.4576929299466106
3708, 1.506228765571914
3709, 1.492476945478078
3710, 1.4520304157903252
3711, 1.477107264196732
3712, 1.4957126678530983
3713, 1.479534055977997
3714, 1.479534055977997
3715, 1.4455589710402847
3716, 1.4172464002588578
3717, 1.435042873321469
3718, 1.3986409966024915
3719, 1.4730626112279566
3720, 1.506228765571914
3721, 1.4447500404465297
3722, 1.4455589710402847
3723, 1.4326160815402038
3724, 1.3824623847273905
3725, 1.3444426468209028
3726, 1.3072318395081701
3727, 1.3379712020708623
3728, 1.3306908267270667
3729, 1.2781103381329881
3730, 1.2651674486329072
3731, 1.2700210321954377
3732, 1.3137032842582106
3733, 1.3970231354149814
3734, 1.6049182980100307
3735, 1.8742921857304644
3736, 1.896942242355606
3737, 1.622714771072642
3738, 1.1632421938197703
3739, 0.6350105160977189
3740, 0.3017311114706358
3741, 0.3413687105646336
3742, 0.5023458987218896
3743, 0.651998058566575
3744, 0.7652483416922828
3745, 0.8137841773175861
3746, 0.7595858275359975
3747, 0.7417893544733862
3748, 0.8364342339427278
3749, 0.9877042549749232
3750, 1.1810386668823816
3751, 1.2667853098204174
3752, 1.2578870732891119
3753, 1.2805371299142534
3754, 1.2821549911017636
3755, 1.261122795664132
3756, 1.303187186539395
3757, 1.3395890632583725
3758, 1.3581944669147388
3759, 1.3452515774146578
3760, 1.3298818961333119
3761, 1.3306908267270667
3762, 1.3800355929461252
3763, 1.3945963436337163
3764, 1.405921371946287
3765, 1.4358518039152242
3766, 1.4576929299466106
3767, 1.522407377447015
3768, 1.5474842258534218
3769, 1.5749878660410936
3770, 1.6121986733538263
3771, 1.5895486167286847
3772, 1.5685164212910532
3773, 1.5272609610095453
3774, 1.464164374696651
3775, 1.405112441352532
3776, 1.3290729655395568
3777, 1.2578870732891119
3778, 1.217440543601359
3779, 1.1778029445073612
3780, 1.1033813298818962
3781, 1.1341206924445884
3782, 1.1527260961009544
3783, 1.1090438440381816
3784, 1.0758776896942241
3785, 1.0419026047565119
3786, 1.0783044814754894
3787, 1.0362400906002265
3788, 1.0394758129752468
3789, 1.0710241061316939
3790, 1.0313865070376962
3791, 1.0645526613816534
3792, 1.115515288788222
3793, 1.0362400906002265
3794, 1.0087364504125547
3795, 1.0208704093188805
3796, 1.0362400906002265
3797, 1.0669794531629186
3798, 1.0653615919754085
3799, 1.0354311600064714
3800, 1.01601682575635
3801, 1.0451383271315322
3802, 1.1090438440381816
3803, 1.147063581944669
3804, 1.143827859569649
3805, 1.1947904869762174
3806, 1.2271477107264197
3807, 1.2522245591328265
3808, 1.275683546351723
3809, 1.291053227633069
3810, 1.3363533408833521
3811, 1.3937874130399612
3812, 1.361430189289759
3813, 1.3104675618831905
3814, 1.3080407701019252
3815, 1.3080407701019252
3816, 1.2692121016016826
3817, 1.2538424203203364
3818, 1.2263387801326646
3819, 1.202879792913768
3820, 1.1381653454133636
3821, 1.0952920239443455
3822, 1.0847759262255299
3823, 1.0451383271315322
3824, 0.9828506714123928
3825, 0.9367416275683547
3826, 0.9116647791619479
3827, 0.883352208380521
3828, 0.8752629024429704
3829, 0.8615110823491344
3830, 0.8331985115677075
3831, 0.8364342339427278
3832, 0.8323895809739524
3833, 0.7725287170360783
3834, 0.7563501051609772
3835, 0.7612036887235075
3836, 0.7458340074421614
3837, 0.8016502184112603
3838, 0.7595858275359975
3839, 0.723992881410775
3840, 0.6843552823167772
3841, 0.6503801973790648
3842, 0.6479534055977997
3843, 0.6778838375667368
3844, 0.7094321307231839
3845, 0.7312732567545704
3846, 0.7482607992234266
3847, 0.7490697298171817
3848, 0.738553632098366
3849, 0.7425982850671412
3850, 0.7264196731920401
3851, 0.710241061316939
3852, 0.7207571590357548
3853, 0.7086232001294289
3854, 0.6803106293480019
3855, 0.7134767836919592
3856, 0.7280375343795502
3857, 0.7094321307231839
3858, 0.6875910046917975
3859, 0.7191392978482446
3860, 0.7231839508170199
3861, 0.710241061316939
3862, 0.7773823005986087
3863, 1.0394758129752468
3864, 1.4188642614463678
3865, 1.4754894030092218
3866, 0.9310791134120693
3867, 0.4012295745025077
3868, 0.40203850509626277
3869, 0.5913282640349458
3870, 0.6536159197540851
3871, 0.6584695033166155
3872, 0.6625141562853907
3873, 0.6714123928166963
3874, 0.6795016987542469
3875, 0.6972981718168582
3876, 0.6859731435042873
3877, 0.6770749069729817
3878, 0.681119559941757
3879, 0.6803106293480019
3880, 0.7110499919106941
3881, 0.7684840640673031
3882, 0.7652483416922828
3883, 0.7150946448794694
3884, 0.738553632098366
3885, 0.7798090923798738
3886, 0.7701019252548131
3887, 0.7741465782235885
3888, 0.7806180229736288
3889, 0.7854716065361592
3890, 0.8307717197864424
3891, 0.811357385536321
3892, 0.7919430512861997
3893, 0.8420967480990131
3894, 0.8518039152240737
3895, 0.8097395243488109
3896, 0.7814269535673839
3897, 0.7781912311923637
3898, 0.7870894677236693
3899, 0.7757644394110985
3900, 0.8008412878175053
3901, 0.7992234266299951
3902, 0.7830448147548941
3903, 0.8065038019737907
3904, 0.8307717197864424
3905, 0.8040770101925255
3906, 0.8210645526613817
3907, 0.8073127325675457
3908, 0.8226824138488917
3909, 0.840478886911503
3910, 0.7175214366607345
3911, 0.6867820740980424
3912, 0.8445235398802783
3913, 0.8873968613492962
3914, 0.7652483416922828
3915, 0.7409804238796311
3916, 0.7709108558485682
3917, 0.7514965215984468
3918, 0.7231839508170199
3919, 0.7134767836919592
3920, 0.7078142695356738
3921, 0.7110499919106941
3922, 0.7328911179420806
3923, 0.7506875910046918
3924, 0.7490697298171817
3925, 0.7045785471606536
3926, 0.6608962950978806
3927, 0.7061964083481638
3928, 0.7571590357547322
3929, 0.7587768969422424
3930, 0.7790001617861187
3931, 0.783853745348649
3932, 0.7652483416922828
3933, 0.7781912311923637
3934, 0.8283449280051771
3935, 0.8841611389742761
3936, 0.8890147225368064
3937, 0.8501860540365637
3938, 0.8566574987866041
3939, 0.8154020385050963
3940, 0.8048859407862805
3941, 0.8267270668176671
3942, 0.753923313379712
3943, 0.6948713800355929
3944, 0.7021517553793885
3945, 0.7110499919106941
3946, 0.7118589225044492
3947, 0.7207571590357548
3948, 0.7191392978482446
3949, 0.6900177964730626
3950, 0.666558809254166
3951, 0.8218734832551368
3952, 1.261122795664132
3953, 1.754570457854716
3954, 1.6356576605727229
3955, 0.7725287170360783
3956, 0.2887882219705549
3957, 0.37453486490859084
3958, 0.5274227471282964
3959, 0.6139783206600874
3960, 0.6641320174729008
3961, 0.7199482284419997
3962, 0.7199482284419997
3963, 0.7061964083481638
3964, 0.7175214366607345
3965, 0.7523054521922019
3966, 0.7749555088173434
3967, 0.738553632098366
3968, 0.6875910046917975
3969, 0.6463355444102896
3970, 0.6471444750040447
3971, 0.7514965215984468
3972, 0.7798090923798738
3973, 0.7636304805047727
3974, 0.7935609124737097
3975, 0.7903251900986895
3976, 0.7749555088173434
3977, 0.8485681928490536
3978, 0.8534217764115839
3979, 0.8145931079113412
3980, 0.8469503316615434
3981, 0.8607021517553793
3982, 0.8712182494741951
3983, 0.9157094321307232
3984, 0.9335059051933344
3985, 0.9448309335059052
3986, 0.9585827535997411
3987, 0.9521113088497007
3988, 0.9682899207248018
3989, 0.9513023782559457
3990, 0.9092379873806827
3991, 0.9197540850994984
3992, 0.9496845170684355
3993, 0.8882057919430513
3994, 0.840478886911503
3995, 0.8841611389742761
3996, 0.9011486814431322
3997, 0.8631289435366446
3998, 0.8623200129428895
3999, 0.8623200129428895
4000, 0.8485681928490536
4001, 0.8744539718492154
4002, 0.8639378741303996
4003, 0.840478886911503
4004, 0.8590842905678693
4005, 0.8760718330367254
4006, 0.8793075554117457
4007, 0.8631289435366446
4008, 0.8776896942242356
4009, 0.8817343471930108
4010, 0.8615110823491344
4011, 0.8720271800679502
4012, 0.8817343471930108
4013, 0.8946772366930917
4014, 0.9237987380682737
4015, 0.9237987380682737
4016, 0.9084290567869276
4017, 0.9108558485681928
4018, 0.9205630156932535
4019, 0.9593916841934962
4020, 0.9779970878498625
4021, 1.0055007280375343
4022, 1.0774955508817343
4023, 1.1405921371946286
4024, 1.1519171655071996
4025, 1.0815402038505095
4026, 1.01601682575635
4027, 0.9642452677560265
4028, 0.9577738230059861
4029, 0.94240414172464
4030, 0.956155961818476
4031, 0.9658631289435367
4032, 0.956964892412231
4033, 0.9593916841934962
4034, 0.9577738230059861
4035, 0.9747613654748423
4036, 0.9901310467561883
4037, 0.970716712506067
4038, 0.9254165992557839
4039, 0.999029283287494
4040, 1.316939006633231
4041, 1.8928975893868305
4042, 2.1339589063258373
4043, 1.4512214851965701
4044, 0.6568516421291053
4045, 0.5258048859407862
4046, 0.7167125060669794
4047, 0.8679825270991749
4048, 0.9221808768807637
4049, 0.9391684193496198
4050, 0.9440220029121501
4051, 0.9650541983497816
4052, 0.9747613654748423
4053, 0.9909399773499433
4054, 1.0419026047565119
4055, 1.0281507846626758
4056, 0.9440220029121501
4057, 0.9391684193496198
4058, 0.9957935609124737
4059, 1.028959715256431
4060, 1.0516097718815725
4061, 1.0386668823814917
4062, 1.0386668823814917
4063, 1.028959715256431
4064, 1.0232972011001455
4065, 1.043520465944022
4066, 1.0556544248503479
4067, 1.0920563015693254
4068, 1.1090438440381816
4069, 1.0807312732567547
4070, 1.0839669956317748
4071, 1.1349296230383432
4072, 1.1292671088820578
4073, 1.1527260961009544
4074, 1.1721404303510758
4075, 1.1850833198511568
4076, 1.189127972819932
4077, 1.176185083319851
4078, 1.172949360944831
4079, 1.1656689856010354
4080, 1.1689047079760557
4081, 1.16000647144475
4082, 1.1098527746319367
4083, 1.0847759262255299
4084, 1.1106617052256917
4085, 1.102572399288141
4086, 1.059699077819123
4087, 1.0815402038505095
4088, 1.1066170522569163
4089, 1.072641967319204
4090, 1.0702151755379388
4091, 1.0912473709755703
4092, 1.0702151755379388
4093, 1.0766866202879792
4094, 1.0896295097880602
4095, 1.0912473709755703
4096, 1.0928652321630805
4097, 1.1074259828506714
4098, 1.0920563015693254
4099, 1.0807312732567547
4100, 1.0912473709755703
4101, 1.117133149975732
4102, 1.1292671088820578
4103, 1.1098527746319367
4104, 1.1090438440381816
4105, 1.1397832066008737
4106, 1.1333117618508333
4107, 1.1486814431321792
4108, 1.1632421938197703
4109, 1.1850833198511568
4110, 1.231192363695195
4111, 1.2497977673515612
4112, 1.2538424203203364
4113, 1.1939815563824623
4114, 1.1502993043196894
4115, 1.1454457207571591
4116, 1.1033813298818962
4117, 1.101763468694386
4118, 1.1001456075068758
4119, 1.1163242193819771
4120, 1.1033813298818962
4121, 1.1462546513509142
4122, 1.1430189289758939
4123, 1.0758776896942241
4124, 1.0807312732567547
4125, 1.0920563015693254
4126, 1.0944830933505905
4127, 1.1527260961009544
4128, 1.4463679016340398
4129, 1.9365798414496036
4130, 2.029606859731435
4131, 1.3808445235398803
4132, 0.753114382785957
4133, 0.7126678530982041
4134, 0.9351237663808445
4135, 1.0621258696003884
4136, 1.1033813298818962
4137, 1.1260313865070377
4138, 1.128458178288303
4139, 1.159197540850995
4140, 1.1632421938197703
4141, 1.1276492476945479
4142, 1.1260313865070377
4143, 1.1705225691635657
4144, 1.1486814431321792
4145, 1.101763468694386
4146, 1.1632421938197703
4147, 1.172949360944831
4148, 1.157579679663485
4149, 1.1664779161947905
4150, 1.117133149975732
4151, 1.1211778029445074
4152, 1.1381653454133636
4153, 1.1519171655071996
4154, 1.1640511244135254
4155, 1.1769940139136061
4156, 1.1810386668823816
4157, 1.2077333764762983
4158, 1.219058404788869
4159, 1.215822682413849
4160, 1.219058404788869
4161, 1.2441352531952758
4162, 1.2400906002265006
4163, 1.2546513509140915
4164, 1.2675942404141725
4165, 1.2554602815078466
4166, 1.260313865070377
4167, 1.2344280860702153
4168, 1.218249474195114
4169, 1.2263387801326646
4170, 1.1980262093512377
4171, 1.1931726257887074
4172, 1.172949360944831
4173, 1.1624332632260153
4174, 1.1543439572884646
4175, 1.1292671088820578
4176, 1.147063581944669
4177, 1.173758291538586
4178, 1.1478725125384242
4179, 1.1276492476945479
4180, 1.1502993043196894
4181, 1.189936903413687
4182, 1.346869438602168
4183, 1.638893382947743
4184, 1.8298010030739362
4185, 1.7060346222294127
4186, 1.320174729008251
4187, 0.8526128458178288
4188, 0.4894030092218088
4189, 0.3640187671897751
4190, 0.43682252062773014
4191, 0.5298495389095615
4192, 0.6511891279728199
4193, 0.7595858275359975
4194, 0.7417893544733862
4195, 0.7013428247856334
4196, 0.7773823005986087
4197, 0.927034460443294
4198, 1.1405921371946286
4199, 1.260313865070377
4200, 1.2837728522892735
4201, 1.3226015207895163
4202, 1.2861996440705388
4203, 1.2643585180391523
4204, 1.2570781426953568
4205, 1.231192363695195
4206, 1.2384727390389905
4207, 1.2651674486329072
4208, 1.277301407539233
4209, 1.2942889500080894
4210, 1.3023782559456398
4211, 1.2926710888205792
4212, 1.3282640349458017
4213, 1.388933829477431
4214, 1.4722536806342015
4215, 1.4544572075715902
4216, 1.4827697783530174
4217, 1.5523378094159521
4218, 1.59682899207248
4219, 1.6186701181038667
4220, 1.6291862158226824
4221, 1.6251415628539072
4222, 1.5895486167286847
4223, 1.567707490697298
4224, 1.507846626759424
4225, 1.4285714285714286
4226, 1.3598123281022487
4227, 1.3226015207895163
4228, 1.2934800194143343
4229, 1.260313865070377
4230, 1.2109690988513186
4231, 1.1664779161947905
4232, 1.1656689856010354
4233, 1.1931726257887074
4234, 1.1923636951949523
4235, 1.1640511244135254
4236, 1.1818475974761367
4237, 1.1689047079760557
4238, 1.143827859569649
4239, 1.1397832066008737
4240, 1.1559618184759748
4241, 0.999029283287494
4242, 0.8493771234428086
4243, 0.9682899207248018
4244, 1.2433263226015208
4245, 1.4415143180715095
4246, 1.407539233133797
4247, 1.3226015207895163
4248, 1.2635495874453972
4249, 1.218249474195114
4250, 1.2392816696327456
4251, 1.2821549911017636
4252, 1.2384727390389905
4253, 1.1567707490697299
4254, 1.1130884970069568
4255, 1.1203688723507523
4256, 1.1494903737259343
4257, 1.1640511244135254
4258, 1.1551528878822197
4259, 1.1648600550072803
4260, 1.1713314997573208
4261, 1.1689047079760557
4262, 1.1559618184759748
4263, 1.1389742760071186
4264, 1.159197540850995
4265, 1.1915547646011972
4266, 1.1826565280698915
4267, 1.1705225691635657
4268, 1.172949360944831
4269, 1.1972172787574826
4270, 1.1939815563824623
4271, 1.1802297362886265
4272, 1.1931726257887074
4273, 1.1907458340074422
4274, 1.2093512376638085
4275, 1.187510111632422
4276, 1.1680957773823006
4277, 1.1802297362886265
4278, 1.173758291538586
4279, 1.1656689856010354
4280, 1.186701181038667
4281, 1.188319042226177
4282, 1.217440543601359
4283, 1.244944183789031
4284, 1.1697136385698108
4285, 1.1850833198511568
4286, 1.2214851965701343
4287, 1.2295745025076847
4288, 1.246562044976541
4289, 1.260313865070377
4290, 1.2716388933829477
4291, 1.277301407539233
4292, 1.277301407539233
4293, 1.2206762659763792
4294, 1.0508008412878176
4295, 0.9820417408186377
4296, 1.030577576443941
4297, 1.0556544248503479
4298, 1.202879792913768
4299, 1.320174729008251
4300, 1.291053227633069
4301, 1.348487299789678
4302, 1.3088497006956803
4303, 1.2101601682575636
4304, 1.3347354796958422
4305, 1.66882381491668
4306, 2.043358679825271
4307, 1.9503316615434396
4308, 1.1802297362886265
4309, 0.6544248503478401
4310, 0.7652483416922828
4311, 1.0192525481313703
4312, 1.1996440705387479
4313, 1.2360459472577252
4314, 1.1818475974761367
4315, 1.1988351399449928
4316, 1.2069244458825432
4317, 1.187510111632422
4318, 1.1923636951949523
4319, 1.2425173920077657
4320, 1.2546513509140915
4321, 1.231192363695195
4322, 1.2093512376638085
4323, 1.2263387801326646
4324, 1.2433263226015208
4325, 1.2287655719139299
4326, 1.2336191554764602
4327, 1.2206762659763792
4328, 1.2287655719139299
4329, 1.246562044976541
4330, 1.2417084614140106
4331, 1.2295745025076847
4332, 1.2562692121016017
4333, 1.244944183789031
4334, 1.043520465944022
4335, 1.1227956641320174
4336, 1.3792266623523701
4337, 1.4018767189775116
4338, 1.3581944669147388
4339, 1.3153211454457208
4340, 1.2870085746642939
4341, 1.2821549911017636
4342, 1.2805371299142534
4343, 1.2967157417893544
4344, 1.3161300760394758
4345, 1.2918621582268242
4346, 1.2675942404141725
4347, 1.289435366445559
4348, 1.30399611713315
4349, 1.2853907134767837
4350, 1.258696003882867
4351, 1.248179906164051
4352, 1.231192363695195
4353, 1.2400906002265006
4354, 1.2667853098204174
4355, 1.2805371299142534
4356, 1.3007603947581297
4357, 1.304805047726905
4358, 1.2675942404141725
4359, 1.2975246723831095
4360, 1.3209836596020061
4361, 1.2360459472577252
4362, 1.23200129428895
4363, 1.2441352531952758
4364, 1.2667853098204174
4365, 1.2934800194143343
4366, 1.245753114382786
4367, 1.2627406568516422
4368, 1.2732567545704578
4369, 1.2247209189451544
4370, 1.2700210321954377
4371, 1.317747937226986
4372, 1.3209836596020061
4373, 1.3120854230707006
4374, 1.3298818961333119
4375, 1.3452515774146578
4376, 1.320174729008251
4377, 1.3112764924769456
4378, 1.303187186539395
4379, 1.303187186539395
4380, 1.2635495874453972
4381, 1.260313865070377
4382, 1.2870085746642939
4383, 1.258696003882867
4384, 1.2271477107264197
4385, 1.231192363695195
4386, 1.2554602815078466
4387, 1.2376638084452354
4388, 1.2344280860702153
4389, 1.2530334897265814
4390, 1.2384727390389905
4391, 1.2797281993204983
4392, 1.5183627244782398
4393, 1.928490535512053
4394, 2.040931888044006
4395, 1.52159844685326
4396, 0.9229898074745186
4397, 0.8056948713800356
4398, 1.0095453810063097
4399, 1.1786118751011163
4400, 1.2133958906325837
4401, 1.2514156285390714
4402, 1.3128943536644555
4403, 1.1559618184759748
4404, 1.0807312732567547
4405, 1.1907458340074422
4406, 1.2352370166639701
4407, 1.303187186539395
4408, 1.3501051609771881
4409, 1.2797281993204983
4410, 1.2441352531952758
4411, 1.3104675618831905
4412, 1.2950978806018443
4413, 1.2497977673515612
4414, 1.2643585180391523
4415, 1.3056139783206602
4416, 1.3606212586960038
4417, 1.3371622714771072
4418, 1.3007603947581297
4419, 1.3379712020708623
4420, 1.261931726257887
4421, 1.2489888367578061
4422, 1.3056139783206602
4423, 1.275683546351723
4424, 1.4463679016340398
4425, 1.5571913929784824
4426, 1.52159844685326
4427, 1.4811519171655072
4428, 1.4407053874777545
4429, 1.4512214851965701
4430, 1.4528393463840803
4431, 1.4067303025400422
4432, 1.3800355929461252
4433, 1.3808445235398803
4434, 1.3679016340397994
4435, 1.320174729008251
4436, 1.2853907134767837
4437, 1.260313865070377
4438, 1.274065685164213
4439, 1.290244297039314
4440, 1.2853907134767837
4441, 1.2975246723831095
4442, 1.2983336029768646
4443, 1.3096586312894354
4444, 1.291053227633069
4445, 1.2578870732891119
4446, 1.2570781426953568
4447, 1.261931726257887
4448, 1.274874615757968
4449, 1.2554602815078466
4450, 1.176185083319851
4451, 1.2708299627891926
4452, 1.5927843391037049
4453, 1.8225206277301407
4454, 1.9470959391684193
4455, 1.8953243811680958
4456, 1.638893382947743
4457, 1.2279566413201748
4458, 0.8372431645364827
4459, 0.6495712667853099
4460, 0.6786927681604918
4461, 0.8291538585989322
4462, 0.970716712506067
4463, 1.0394758129752468
4464, 1.0063096586312894
4465, 0.9399773499433749
4466, 0.9610095453810064
4467, 1.0176346869438602
4468, 1.1616243326322602
4469, 1.2853907134767837
4470, 1.3137032842582106
4471, 1.3298818961333119
4472, 1.332308687914577
4473, 1.3242193819770263
4474, 1.3314997573208218
4475, 1.3379712020708623
4476, 1.3371622714771072
4477, 1.3517230221646983
4478, 1.37599093997735
4479, 1.392169551852451
4480, 1.4099660249150623
4481, 1.4390875262902443
4482, 1.464164374696651
4483, 1.4884322925093028
4484, 1.507037696165669
4485, 1.5442485034784015
4486, 1.5895486167286847
4487, 1.6316130076039477
4488, 1.6607345089791297
4489, 1.649409480666559
4490, 1.5434395728846464
4491, 1.5596181847597477
4492, 1.7561883190422263
4493, 1.7877366121986733
4494, 1.7294936094483093
4495, 1.6405112441352532
4496, 1.5604271153535028
4497, 1.4957126678530983
4498, 1.4722536806342015
4499, 1.4423232486652646
4500, 1.4026856495712667
4501, 1.3832713153211456
4502, 1.3856981071024106
4503, 1.3800355929461252
4504, 1.3654748422585343
4505, 1.3363533408833521
4506, 1.3314997573208218
4507, 1.349296230383433
4508, 1.3298818961333119
4509, 1.3290729655395568
4510, 1.3420158550396375
4511, 1.3525319527584534
4512, 1.347678369195923
4513, 1.3395890632583725
4514, 1.3444426468209028
4515, 1.3452515774146578
4516, 1.3355444102895973
4517, 1.332308687914577
4518, 1.3379712020708623
4519, 1.3412069244458826
4520, 1.348487299789678
4521, 1.3379712020708623
4522, 1.320174729008251
4523, 1.3420158550396375
4524, 1.3703284258210646
4525, 1.3387801326646174
4526, 1.320174729008251
4527, 1.3217925901957612
4528, 1.3234104513832714
4529, 1.3298818961333119
4530, 1.3541498139459633
4531, 1.3533408833522085
4532, 1.3444426468209028
4533, 1.3412069244458826
4534, 1.3363533408833521
4535, 1.348487299789678
4536, 1.3557676751334735
4537, 1.3533408833522085
4538, 1.3509140915709432
4539, 1.3541498139459633
4540, 1.3581944669147388
4541, 1.3646659116647792
4542, 1.3638569810710242
4543, 1.3719462870085746
4544, 1.3800355929461252
4545, 1.3638569810710242
4546, 1.3565766057272286
4547, 1.3840802459149004
4548, 1.3994499271962466
4549, 1.3962142048212263
4550, 1.4277624979776735
4551, 1.4585018605403657
4552, 1.4528393463840803
4553, 1.447176832227795
4554, 1.4398964568839994
4555, 1.4220999838213881
4556, 1.3970231354149814
4557, 1.3792266623523701
4558, 1.376799870571105
4559, 1.3824623847273905
4560, 1.3873159682899208
4561, 1.3808445235398803
4562, 1.3743730787898398
4563, 1.3735641481960847
4564, 1.3816534541336354
4565, 1.375182009383595
4566, 1.3711373564148197
4567, 1.4423232486652646
4568, 1.6930917327293318
4569, 2.0376961656689856
4570, 2.084614140106779
4571, 1.5434395728846464
4572, 0.9763792266623523
4573, 0.9448309335059052
4574, 1.1705225691635657
4575, 1.2926710888205792
4576, 1.3314997573208218
4577, 1.3606212586960038
4578, 1.3719462870085746
4579, 1.3792266623523701
4580, 1.4018767189775116
4581, 1.4123928166963275
4582, 1.3800355929461252
4583, 1.375182009383595
4584, 1.3832713153211456
4585, 1.3848891765086555
4586, 1.3848891765086555
4587, 1.3905516906649409
4588, 1.4148196084775926
4589, 1.4172464002588578
4590, 1.420482122633878
4591, 1.4067303025400422
4592, 1.4091570943213072
4593, 1.435042873321469
4594, 1.436660734508979
4595, 1.4318071509464487
4596, 1.450412554602815
4597, 1.4423232486652646
4598, 1.4560750687591004
4599, 1.476298333602977
4600, 1.4754894030092218
4601, 1.476298333602977
4602, 1.4843876395405273
4603, 1.4803429865717521
4604, 1.4940948066655881
4605, 1.477107264196732
4606, 1.477107264196732
4607, 1.5102734185406892
4608, 1.519171655071995
4609, 1.5005662514156286
4610, 1.4965215984468532
4611, 1.5118912797281994
4612, 1.519171655071995
4613, 1.5135091409157095
4614, 1.534541336353341
4615, 1.6801488432292508
4616, 1.9648924122310305
4617, 2.2674324542954216
4618, 2.2407377447015047
4619, 1.8079598770425498
4620, 1.2821549911017636
4621, 0.7919430512861997
4622, 0.478077980909238
4623, 0.49344766219058406
4624, 0.6568516421291053
4625, 0.86879145769293
4626, 1.0491829801003074
4627, 1.0694062449441837
4628, 1.028959715256431
4629, 1.0685973143504288
4630, 1.2061155152887881
4631, 1.4132017472900824
4632, 1.5571913929784824
4633, 1.6041093674162756
4634, 1.649409480666559
4635, 1.6623523701666396
4636, 1.638084452353988
4637, 1.680957773823006
4638, 1.7618508331985117
4639, 1.7877366121986733
4640, 1.7950169875424689
4641, 1.7634686943860216
4642, 1.782074098042388
4643, 1.8103866688238148
4644, 1.7974437793237341
4645, 1.8160491829801002
4646, 1.854877851480343
4647, 1.9090762012619318
4648, 1.9479048697621744
4649, 1.9762174405436013
4650, 2.086232001294289
4651, 2.086232001294289
4652, 2.0781426953567386
4653, 2.114544572075716
4654, 2.0838052095130237
4655, 2.015855039637599
4656, 1.9616566898560104
4657, 1.9220190907620127
4658, 1.8670118103866689
4659, 1.8022973628862644
4660, 1.754570457854716
4661, 1.7181685811357386
4662, 1.679339912635496
4663, 1.6429380359165184
4664, 1.6194790486976218
4665, 1.6243326322601521
4666, 1.59682899207248
4667, 1.5976379226662352
4668, 1.5871218249474195
4669, 1.5863128943536644
4670, 1.5927843391037049
4671, 1.5960200614787252
4672, 1.5984468532599903
4673, 1.609771881572561
4674, 1.594402200291215
4675, 1.5749878660410936
4676, 1.6138165345413364
4677, 1.5976379226662352
4678, 1.5838861025723994
4679, 1.6024915062287655
4680, 1.5960200614787252
4681, 1.5992557838537453
4682, 1.581459310791134
4683, 1.607345089791296
4684, 1.649409480666559
4685, 1.5992557838537453
4686, 1.579841449603624
4687, 1.6049182980100307
4688, 1.6162433263226015
4689, 1.6154343957288464
4690, 1.6194790486976218
4691, 1.637275521760233
4692, 1.6550719948228443
4693, 1.6348487299789678
4694, 1.606536159197541
4695, 1.610580812166316
4696, 1.6219058404788869
4697, 1.6267594240414172
4698, 1.6259504934476623
4699, 1.6283772852289273
4700, 1.6348487299789678
4701, 1.6308040770101926
4702, 1.6324219381977025
4703, 1.6243326322601521
4704, 1.638084452353988
4705, 1.668014884322925
4706, 1.6413201747290083
4707, 1.6219058404788869
4708, 1.6599255783853746
4709, 1.6801488432292508
4710, 1.6283772852289273
4711, 1.668014884322925
4712, 1.682575635010516
4713, 1.623523701666397
4714, 1.668014884322925
4715, 1.7092703446044328
4716, 1.6583077171978644
4717, 1.6696327455104352
4718, 1.6728684678854555
4719, 1.6752952596667205
4720, 1.7149328587607184
4721, 1.7367739847921049
4722, 1.7440543601359004
4723, 1.711697136385698
4724, 1.6858113573855362
4725, 1.695518524510597
4726, 1.7205953729170038
4727, 1.752952596667206
4728, 1.7658954861672869
4729, 1.7626597637922665
4730, 1.7553793884484712
4731, 1.7343471930108396
4732, 1.6761041902604756
4733, 1.649409480666559
4734, 1.6429380359165184
4735, 1.639702313541498
4736, 1.6453648276977835
4737, 1.6461737582915386
4738, 1.639702313541498
4739, 1.638893382947743
4740, 1.638084452353988
4741, 1.6469826888852936
4742, 1.6130076039475814
4743, 1.6130076039475814
4744, 1.8346545866364665
4745, 2.256107425982851
4746, 2.5254813137032843
4747, 2.1695518524510597
4748, 1.433425012133959
4749, 1.1430189289758939
4750, 1.2967157417893544
4751, 1.4722536806342015
4752, 1.5329234751658307
4753, 1.5830771719786443
4754, 1.606536159197541
4755, 1.5976379226662352
4756, 1.609771881572561
4757, 1.608962950978806
4758, 1.6057272286037858
4759, 1.638084452353988
4760, 1.6202879792913767
4761, 1.6219058404788869
4762, 1.6324219381977025
4763, 1.6469826888852936
4764, 1.6453648276977835
4765, 1.639702313541498
4766, 1.6696327455104352
4767, 1.6752952596667205
4768, 1.6720595372917004
4769, 1.6752952596667205
4770, 1.681766704416761
4771, 1.6728684678854555
4772, 1.6631613007603947
4773, 1.695518524510597
4774, 1.710079275198188
4775, 1.7052256916356576
4776, 1.7027988998543926
4777, 1.7157417893544733
4778, 1.7214043035107587
4779, 1.708461414010678
4780, 1.7214043035107587
4781, 1.7197864423232487
4782, 1.7286846788545542
4783, 1.7205953729170038
4784, 1.7076524834169229
4785, 1.7278757482607991
4786, 1.754570457854716
4787, 1.7586151108234913
4788, 1.7796473062611229
4789, 1.7942080569487138
4790, 1.7351561236045947
4791, 1.7011810386668824
4792, 1.7343471930108396
4793, 1.74081863776088
4794, 1.724640025885779
4795, 1.697945316291862
4796, 1.6914738715418216
4797, 1.7027988998543926
4798, 1.7052256916356576
4799, 1.7044167610419025
4800, 1.7011810386668824
4801, 1.7052256916356576
4802, 1.7303025400420644
4803, 1.7303025400420644
4804, 1.7165507199482284
4805, 1.7011810386668824
4806, 1.710888205791943
4807, 1.7351561236045947
4808, 1.7440543601359004
4809, 1.7626597637922665
4810, 1.7715580003235722
4811, 1.7788383756673678
4812, 1.795825918136224
4813, 1.8225206277301407
4814, 1.8459796149490373
4815, 1.8589225044491182
4816, 1.8799546998867498
4817, 1.869438602167934
4818, 1.854068920886588
4819, 1.8200938359488756
4820, 1.7756026532923475
4821, 1.7764115838861025
4822, 1.7861187510111634
4823, 1.7650865555735318
4824, 1.7513347354796958
4825, 1.7747937226985924
4826, 1.7683222779485521
4827, 1.7650865555735318
4828, 1.7634686943860216
4829, 1.7950169875424689
4830, 1.7788383756673678
4831, 1.7497168742921858
4832, 1.9365798414496036
4833, 2.3685487785148034
4834, 2.68484064067303
4835, 2.3402362077333763
4836, 1.609771881572561
4837, 1.3153211454457208
4838, 1.4512214851965701
4839, 1.6445558971040284
4840, 1.740009707167125
4841, 1.7359650541983498
4842, 1.7319204012295746
4843, 1.766704416761042
4844, 1.8047241546675294
4845, 1.7553793884484712
4846, 1.750525804885941
4847, 1.767513347354797
4848, 1.769131208542307
4849, 1.8014884322925093
4850, 1.7950169875424689
4851, 1.7901634039799386
4852, 1.8176670441676104
4853, 1.8338456560427114
4854, 1.8225206277301407
4855, 1.8184759747613655
4856, 1.8314188642614464
4857, 1.869438602167934
4858, 1.8629671574178936
4859, 1.8629671574178936
4860, 1.8807636304805049
4861, 1.913929784824462
4862, 1.9390066332308689
4863, 1.9155476460119722
4864, 1.9381977026371138
4865, 1.9665102734185407
4866, 1.9778353017311114
4867, 1.9907781912311924
4868, 1.9907781912311924
4869, 1.9786442323248665
4870, 1.9665102734185407
4871, 1.942242355605889
4872, 1.9317262578870733
4873, 1.8912797281993206
4874, 1.870247532761689
4875, 1.867820740980424
4876, 1.8564957126678532
4877, 1.898560103543116
4878, 2.044167610419026
4879, 2.3135414981394598
4880, 2.576443941109853
4881, 2.520627730140754
4882, 2.1274874615757966
4883, 1.6049182980100307
4884, 1.0936741627568354
4885, 0.8291538585989322
4886, 0.8971040284743569
4887, 1.027341854068921
4888, 1.1753761527260962
4889, 1.3371622714771072
4890, 1.3452515774146578
4891, 1.244944183789031
4892, 1.1405921371946286
4893, 1.2004530011325028
4894, 1.6154343957288464
