-226, -203, 23, 214, -125, -90, 2771, 259, 2469, 1020, -1157, -1564
-382, -223, 159, 302, -271, -32, 2808, 270, 2489, 1031, -1127, -1521
-244, -242, 2, 243, -123, -120, 2771, 231, 2452, 1032, -1141, -1563
20, -239, -259, 109, 139, -249, 2681, 223, 2408, 1010, -1193, -1629
-132, -279, -147, 205, 7, -213, 2722, 281, 2449, 1028, -1173, -1583
-509, -330, 179, 419, -344, -76, 2855, 342, 2548, 1149, -1061, -1473
-253, -327, -74, 290, -90, -201, 2770, 260, 2461, 1061, -1109, -1548
244, -280, -524, 18, 384, -402, 2582, 159, 2297, 892, -1268, -1703
-38, -292, -254, 165, 108, -273, 2661, 218, 2367, 985, -1183, -1601
-10, -273, -263, 141, 126, -268, 2643, 225, 2368, 979, -1199, -1613
-34, -303, -269, 168, 117, -286, 2632, 244, 2360, 930, -1230, -1594
-105, -306, -201, 205, 48, -254, 2647, 231, 2357, 907, -1202, -1548
-202, -327, -125, 264, -39, -226, 2677, 241, 2384, 986, -1159, -1536
-298, -333, -35, 315, -132, -184, 2699, 254, 2404, 1069, -1085, -1503
-344, -354, -10, 349, -167, -182, 2728, 232, 2398, 1046, -1061, -1492
-217, -394, -177, 305, -20, -286, 2683, 201, 2352, 1004, -1132, -1551
41, -350, -391, 154, 216, -370, 2567, 178, 2274, 910, -1216, -1621
57, -280, -337, 111, 197, -308, 2561, 181, 2283, 905, -1172, -1591
-35, -292, -257, 163, 111, -275, 2586, 186, 2297, 925, -1163, -1567
-47, -315, -268, 181, 110, -292, 2599, 198, 2313, 989, -1144, -1573
-167, -282, -115, 224, -26, -199, 2636, 236, 2371, 1025, -1069, -1484
-484, -270, 214, 377, -349, -28, 2700, 244, 2420, 1066, -976, -1344
-62, -245, -183, 153, 60, -214, 2556, 164, 2321, 1000, -1062, -1465
129, -259, -388, 65, 258, -323, 2475, 135, 2259, 923, -1126, -1547
199, -255, -454, 28, 326, -354, 2432, 158, 2231, 932, -1142, -1574
100, -183, -283, 41, 191, -233, 2454, 190, 2272, 998, -1057, -1492
-22, -120, -98, 71, 38, -109, 2460, 159, 2282, 1006, -1009, -1439
39, -141, -180, 51, 109, -160, 2419, 118, 2248, 1000, -1021, -1429
47, -166, -213, 59, 130, -189, 2428, 105, 2232, 983, -1021, -1390
7, -164, -171, 78, 89, -167, 2451, 105, 2231, 961, -1016, -1395
-16, -197, -181, 106, 82, -189, 2465, 116, 2239, 976, -1004, -1434
-159, -235, -76, 197, -42, -156, 2515, 138, 2263, 1020, -983, -1390
-652, -312, 340, 482, -496, 14, 2687, 218, 2378, 1091, -886, -1229
-390, -375, 15, 382, -203, -180, 2607, 122, 2267, 972, -989, -1371
28, -429, -457, 200, 242, -443, 2466, 51, 2130, 878, -1108, -1554
-69, -467, -398, 268, 164, -433, 2465, 112, 2143, 873, -1164, -1523
-87, -467, -380, 277, 146, -424, 2486, 115, 2141, 863, -1173, -1551
-623, -509, 114, 566, -369, -198, 2667, 131, 2255, 972, -999, -1400
-297, -522, -225, 409, -36, -374, 2560, 47, 2171, 894, -1044, -1512
-122, -465, -343, 293, 110, -404, 2469, 146, 2156, 925, -1043, -1492
-286, -475, -189, 380, -49, -332, 2521, 184, 2181, 868, -1056, -1386
153, -497, -650, 172, 401, -573, 2399, 83, 2076, 762, -1154, -1519
61, -562, -623, 250, 342, -592, 2467, 109, 2103, 781, -1158, -1565
-461, -787, -326, 624, -68, -557, 2701, 194, 2188, 760, -1207, -1572
-208, -999, -791, 603, 291, -895, 2704, 450, 2361, 821, -1333, -1786
-66, -696, -630, 381, 282, -663, 2626, 889, 2964, 1599, -822, -1504
695, 301, -394, -498, 545, -46, 1997, 720, 3217, 2556, 121, -808
1128, 1389, 261, -1258, 434, 825, 1393, 335, 3051, 2934, 912, -97
142, 1769, 1627, -955, -742, 1698, 1482, -523, 2227, 2217, 1010, 235
-466, 1251, 1717, -392, -1091, 1484, 1700, -1488, 1044, 845, 130, -162
-462, 719, 1181, -128, -821, 950, 1827, -1291, 968, 418, -519, -592
-526, 427, 953, 49, -739, 690, 2066, -576, 1598, 787, -532, -798
-314, 30, 344, 142, -329, 187, 2304, -250, 1906, 854, -730, -1163
96, -363, -459, 133, 277, -411, 2346, -82, 1940, 697, -1052, -1496
-181, -473, -292, 327, 55, -383, 2485, 136, 2099, 772, -1002, -1440
-257, -466, -209, 361, -24, -338, 2525, 165, 2141, 811, -967, -1436
-3, -539, -536, 271, 266, -538, 2457, 145, 2093, 790, -1078, -1563
-100, -601, -501, 350, 200, -551, 2475, 134, 2081, 793, -1054, -1503
-318, -568, -250, 443, -34, -409, 2540, 208, 2173, 910, -853, -1438
-265, -571, -306, 418, 20, -439, 2521, 181, 2148, 862, -885, -1499
-247, -566, -319, 406, 36, -443, 2510, 157, 2117, 793, -951, -1436
125, -552, -677, 213, 401, -614, 2411, 125, 2055, 748, -987, -1526
358, -529, -887, 85, 622, -708, 2334, 117, 2002, 754, -950, -1567
-469, -503, -34, 486, -218, -269, 2565, 253, 2211, 1012, -675, -1285
-183, -517, -334, 350, 75, -426, 2453, 172, 2092, 858, -809, -1414
530, -534, -1064, 2, 797, -799, 2253, 103, 1945, 645, -1022, -1654
-128, -549, -421, 338, 146, -485, 2452, 236, 2123, 869, -817, -1406
-722, -618, 104, 670, -413, -257, 2626, 322, 2260, 1046, -652, -1263
-49, -618, -569, 333, 260, -594, 2438, 251, 2133, 871, -826, -1467
-227, -640, -413, 433, 93, -527, 2507, 326, 2202, 937, -717, -1374
330, -620, -950, 145, 640, -785, 2326, 194, 2048, 784, -879, -1580
447, -603, -1050, 78, 748, -826, 2271, 219, 2019, 695, -969, -1629
-326, -690, -364, 508, 19, -527, 2527, 365, 2221, 873, -759, -1396
-368, -708, -340, 538, -14, -524, 2565, 479, 2287, 958, -684, -1380
211, -717, -928, 253, 569, -822, 2433, 461, 2201, 844, -829, -1556
306, -746, -1052, 220, 679, -899, 2413, 475, 2210, 823, -877, -1590
-35, -770, -735, 402, 350, -753, 2506, 590, 2302, 894, -795, -1507
-411, -871, -460, 641, 24, -666, 2676, 615, 2406, 990, -717, -1470
-190, -927, -737, 558, 273, -832, 2636, 526, 2347, 914, -850, -1570
296, -876, -1172, 290, 734, -1024, 2455, 713, 2290, 807, -960, -1642
14, -878, -892, 432, 453, -885, 2539, 816, 2397, 858, -828, -1555
-437, -908, -471, 672, 17, -690, 2677, 789, 2462, 905, -734, -1396
-38, -1017, -979, 527, 470, -998, 2551, 617, 2274, 801, -899, -1546
713, -967, -1680, 127, 1196, -1323, 2268, 457, 2065, 667, -1067, -1790
-139, -791, -652, 465, 256, -722, 2483, 532, 2276, 947, -626, -1398
-209, -668, -459, 438, 125, -564, 2442, 388, 2204, 985, -473, -1305
-41, -657, -616, 349, 287, -637, 2299, 333, 2066, 929, -503, -1336
-623, -633, -10, 628, -307, -322, 2444, 237, 2122, 1089, -334, -1116
133, -508, -641, 187, 387, -574, 2172, -33, 1851, 878, -529, -1290
696, -432, -1128, -132, 912, -780, 1960, 11, 1739, 765, -572, -1399
305, -428, -733, 61, 519, -580, 2072, 134, 1865, 913, -369, -1262
-314, -481, -167, 397, -74, -324, 2236, 139, 1953, 1071, -171, -1082
-59, -526, -467, 292, 204, -497, 2151, 30, 1838, 961, -278, -1202
-314, -520, -206, 417, -54, -363, 2229, 45, 1905, 1038, -181, -1105
-395, -473, -78, 434, -159, -276, 2249, 6, 1905, 1086, -100, -1026
450, -439, -889, -5, 669, -664, 1983, -48, 1716, 886, -344, -1291
144, -458, -602, 157, 373, -530, 2071, 4, 1785, 965, -222, -1202
-129, -436, -307, 282, 89, -372, 2148, -32, 1812, 1022, -111, -1079
-588, -452, 136, 520, -362, -158, 2270, 32, 1910, 1154, 37, -933
110, -491, -601, 190, 355, -546, 2079, -63, 1749, 947, -205, -1219
343, -470, -813, 63, 578, -641, 1993, -39, 1707, 866, -276, -1262
-393, -473, -80, 433, -157, -277, 2214, -7, 1858, 1073, -25, -1020
-491, -529, -38, 510, -227, -284, 2230, -8, 1854, 1114, 35, -1004
-37, -446, -409, 241, 186, -428, 2098, 8, 1792, 1035, -48, -1056
339, -386, -725, 23, 532, -555, 2014, -51, 1746, 969, -76, -1123
459, -521, -980, 31, 719, -750, 1932, -97, 1636, 827, -211, -1240
346, -494, -840, 74, 593, -667, 1947, -24, 1659, 861, -156, -1215
20, -418, -438, 199, 229, -428, 2065, -16, 1765, 1065, 72, -1089
-92, -427, -335, 259, 121, -381, 2087, -25, 1778, 1093, 116, -1050
-419, -452, -33, 435, -193, -243, 2143, 46, 1840, 1167, 207, -938
-1, -437, -436, 219, 217, -437, 2019, -67, 1709, 1001, 51, -1083
349, -461, -810, 56, 579, -635, 1934, -131, 1616, 887, -68, -1180
78, -491, -569, 206, 323, -530, 1992, -37, 1688, 983, 33, -1085
-24, -449, -425, 236, 200, -437, 2019, 26, 1750, 1053, 113, -1022
99, -468, -567, 184, 333, -517, 2006, -94, 1690, 1018, 71, -1063
210, -483, -693, 136, 451, -588, 1945, -59, 1642, 970, 8, -1108
-62, -458, -396, 260, 167, -427, 2038, 10, 1721, 1051, 159, -1034
117, -358, -475, 120, 296, -416, 2003, -67, 1698, 1082, 215, -1046
-41, -338, -297, 189, 128, -318, 2030, 44, 1749, 1144, 269, -958
-334, -326, 8, 330, -171, -159, 2123, 135, 1846, 1242, 401, -822
498, -320, -818, -89, 658, -569, 1882, -71, 1622, 1002, 131, -1109
355, -331, -686, -12, 520, -508, 1886, -80, 1610, 986, 138, -1059
-233, -300, -67, 266, -83, -184, 2023, 25, 1774, 1217, 383, -824
345, -196, -541, -74, 443, -368, 1805, -63, 1650, 1105, 269, -926
386, -157, -543, -114, 464, -350, 1763, -61, 1639, 1095, 320, -884
256, -178, -434, -39, 345, -306, 1790, -56, 1644, 1147, 373, -871
110, -243, -353, 66, 231, -298, 1820, -97, 1613, 1145, 388, -909
163, -281, -444, 59, 303, -362, 1820, -120, 1589, 1109, 355, -958
314, -321, -635, 3, 474, -478, 1775, -105, 1532, 1018, 260, -1007
190, -387, -577, 98, 383, -482, 1808, -92, 1531, 1009, 290, -992
21, -435, -456, 207, 238, -445, 1859, -74, 1565, 1071, 364, -976
15, -483, -498, 234, 256, -490, 1868, -86, 1548, 1038, 331, -1002
-39, -536, -497, 287, 229, -517, 1885, -76, 1552, 1022, 279, -1008
-107, -522, -415, 314, 154, -469, 1887, -110, 1535, 1009, 273, -961
404, -529, -933, 62, 668, -731, 1740, -214, 1382, 849, 167, -1126
141, -583, -724, 221, 432, -653, 1844, -108, 1482, 995, 303, -1092
-93, -541, -448, 317, 177, -495, 1908, -71, 1562, 1105, 415, -991
-37, -519, -482, 278, 222, -501, 1862, -103, 1515, 1074, 371, -996
203, -554, -757, 175, 480, -655, 1803, -128, 1436, 964, 265, -1081
77, -734, -811, 328, 444, -772, 1915, -17, 1492, 900, 226, -1142
-113, -966, -853, 539, 370, -910, 2066, 284, 1748, 1038, 189, -1213
684, -704, -1388, 10, 1036, -1046, 1833, 515, 2098, 1495, 360, -1202
1127, 189, -938, -658, 1033, -374, 1352, 430, 2444, 2542, 1336, -506
1122, 1184, 62, -1153, 530, 623, 875, 96, 2448, 3213, 2337, 355
453, 1697, 1244, -1075, -395, 1471, 771, -721, 1642, 2588, 2478, 714
-350, 1356, 1706, -503, -1028, 1531, 959, -1665, 425, 1208, 1725, 412
-565, 820, 1385, -127, -975, 1102, 1173, -1556, 310, 743, 1094, -4
-425, 567, 992, -71, -708, 779, 1374, -913, 892, 1033, 969, -245
-34, 168, 202, -67, -118, 185, 1571, -513, 1208, 1100, 738, -631
-40, -300, -260, 170, 110, -280, 1783, -237, 1385, 1082, 544, -881
-123, -559, -436, 341, 156, -498, 1896, -87, 1488, 1093, 455, -978
-113, -587, -474, 350, 180, -531, 1911, -60, 1505, 1127, 476, -976
154, -589, -743, 217, 448, -666, 1821, -108, 1436, 1055, 413, -1091
69, -563, -632, 247, 350, -597, 1837, -88, 1455, 1064, 402, -1071
-254, -586, -332, 420, 39, -459, 1941, -11, 1546, 1174, 525, -959
-158, -639, -481, 398, 161, -560, 1931, -17, 1539, 1178, 506, -985
-23, -617, -594, 320, 285, -606, 1889, -31, 1501, 1131, 406, -1009
-74, -612, -538, 343, 232, -575, 1895, -1, 1520, 1134, 408, -1003
-190, -665, -475, 427, 142, -570, 1931, 13, 1551, 1179, 493, -1007
-261, -709, -448, 485, 93, -579, 1965, 11, 1571, 1212, 531, -1018
103, -645, -748, 271, 425, -696, 1858, 5, 1520, 1161, 443, -1087
116, -567, -683, 225, 399, -625, 1840, 46, 1527, 1152, 440, -1032
-126, -572, -446, 349, 160, -509, 1904, 76, 1578, 1197, 488, -943
-43, -616, -573, 329, 265, -595, 1881, 53, 1552, 1165, 444, -990
-84, -668, -584, 376, 250, -626, 1902, 85, 1572, 1189, 446, -1003
-185, -660, -475, 422, 145, -568, 1941, 133, 1622, 1238, 480, -977
50, -649, -699, 299, 374, -674, 1883, 114, 1588, 1169, 402, -1056
64, -703, -767, 319, 415, -735, 1895, 154, 1609, 1158, 372, -1087
-453, -761, -308, 607, -73, -535, 2064, 298, 1772, 1341, 519, -935
-371, -748, -377, 559, 3, -563, 2067, 328, 1806, 1351, 479, -954
30, -770, -800, 370, 415, -785, 1964, 316, 1740, 1223, 319, -1084
27, -828, -855, 400, 441, -841, 1991, 349, 1759, 1204, 296, -1110
60, -850, -910, 395, 485, -880, 1993, 421, 1771, 1193, 253, -1122
108, -856, -964, 374, 536, -910, 1994, 510, 1820, 1209, 305, -1129
132, -903, -1035, 385, 583, -969, 2005, 541, 1840, 1216, 273, -1184
-148, -937, -789, 542, 320, -863, 2095, 590, 1906, 1248, 269, -1118
-121, -958, -837, 539, 358, -898, 2086, 566, 1886, 1209, 251, -1126
77, -986, -1063, 454, 570, -1024, 2026, 536, 1839, 1187, 182, -1178
6, -981, -987, 487, 496, -984, 2018, 494, 1806, 1165, 140, -1177
-51, -910, -859, 480, 404, -885, 1983, 388, 1749, 1152, 201, -1124
-43, -846, -803, 444, 380, -825, 1933, 323, 1702, 1179, 280, -1074
-177, -768, -591, 472, 207, -680, 1933, 293, 1712, 1290, 398, -964
-250, -677, -427, 463, 88, -552, 1908, 167, 1659, 1324, 513, -844
21, -615, -636, 297, 328, -625, 1763, 19, 1502, 1230, 486, -883
-95, -541, -446, 318, 175, -494, 1749, 44, 1528, 1314, 556, -806
-247, -551, -304, 399, 28, -428, 1769, -41, 1493, 1329, 579, -771
-55, -609, -554, 332, 249, -582, 1695, -85, 1388, 1267, 528, -864
-306, -541, -235, 423, -36, -388, 1758, -53, 1447, 1324, 597, -767
-286, -509, -223, 397, -32, -366, 1749, -142, 1406, 1296, 593, -757
-313, -485, -172, 399, -71, -329, 1760, -73, 1464, 1386, 692, -696
-368, -511, -143, 439, -113, -327, 1756, -56, 1463, 1401, 677, -703
-221, -548, -327, 384, 53, -438, 1715, -134, 1390, 1274, 566, -784
-336, -562, -226, 449, -55, -394, 1744, -192, 1361, 1217, 551, -736
-136, -525, -389, 330, 126, -457, 1673, -175, 1331, 1235, 564, -725
-98, -526, -428, 312, 165, -477, 1689, -101, 1399, 1322, 619, -745
-390, -571, -181, 480, -105, -376, 1787, -182, 1423, 1349, 582, -736
96, -561, -657, 232, 376, -609, 1597, -234, 1255, 1166, 446, -892
-97, -503, -406, 300, 154, -455, 1638, -20, 1371, 1298, 672, -747
-690, -506, 184, 598, -437, -161, 1817, 49, 1516, 1445, 807, -555
-441, -515, -74, 478, -184, -295, 1754, -79, 1423, 1320, 647, -656
0, -536, -536, 268, 268, -536, 1630, -153, 1327, 1196, 488, -795
-256, -596, -340, 426, 42, -468, 1707, -49, 1413, 1296, 550, -718
-559, -617, -58, 588, -251, -338, 1805, -39, 1475, 1364, 699, -621
-113, -555, -442, 334, 164, -499, 1659, -159, 1344, 1221, 607, -784
-130, -530, -400, 330, 135, -465, 1646, -103, 1345, 1228, 619, -721
-282, -538, -256, 410, -13, -397, 1682, -93, 1378, 1276, 716, -640
44, -485, -529, 220, 286, -507, 1581, -142, 1316, 1232, 587, -745
-194, -517, -323, 355, 64, -420, 1653, -139, 1344, 1248, 559, -677
-358, -572, -214, 465, -72, -393, 1680, -163, 1316, 1175, 585, -657
-111, -546, -435, 328, 162, -491, 1600, -137, 1293, 1163, 577, -723
-349, -545, -196, 447, -77, -371, 1698, -50, 1399, 1300, 699, -635
-141, -483, -342, 312, 100, -413, 1663, -102, 1373, 1238, 621, -612
168, -486, -654, 159, 411, -570, 1586, -156, 1294, 1129, 466, -627
-394, -544, -150, 469, -122, -347, 1762, -61, 1420, 1334, 734, -528
-415, -425, -10, 420, -203, -218, 1749, -83, 1444, 1386, 784, -547
-193, -404, -211, 298, 9, -308, 1683, -129, 1393, 1275, 574, -565
122, -385, -507, 131, 314, -446, 1550, -122, 1308, 1185, 612, -606
221, -333, -554, 56, 387, -443, 1466, -105, 1314, 1272, 740, -632
-364, -272, 92, 318, -228, -90, 1613, -54, 1448, 1451, 961, -410
-273, -272, 1, 272, -137, -136, 1573, -162, 1369, 1383, 875, -436
-66, -351, -285, 208, 109, -318, 1512, -210, 1291, 1304, 756, -548
219, -400, -619, 90, 419, -509, 1434, -262, 1206, 1207, 571, -651
-56, -367, -311, 211, 127, -339, 1509, -119, 1289, 1280, 618, -486
-649, -492, 157, 570, -403, -168, 1711, -76, 1409, 1424, 802, -373
45, -612, -657, 283, 351, -634, 1497, -169, 1199, 1203, 558, -641
-138, -697, -559, 417, 210, -628, 1535, -143, 1202, 1209, 646, -654
-152, -610, -458, 381, 153, -534, 1541, -222, 1176, 1229, 596, -696
-54, -493, -439, 273, 192, -466, 1498, -224, 1148, 1230, 567, -626
-55, -559, -504, 307, 224, -532, 1492, -235, 1136, 1184, 511, -636
-3, -637, -634, 320, 315, -636, 1481, -233, 1107, 1135, 511, -701
-694, -613, 81, 653, -388, -266, 1689, -94, 1298, 1399, 841, -450
-464, -522, -58, 493, -203, -290, 1615, -176, 1245, 1358, 780, -490
276, -562, -838, 143, 557, -700, 1376, -332, 1010, 1104, 459, -722
-335, -746, -411, 540, 38, -579, 1603, -170, 1165, 1231, 539, -590
-262, -986, -724, 624, 231, -855, 1673, -94, 1184, 1146, 324, -771
83, -1040, -1123, 478, 603, -1081, 1640, 270, 1403, 1284, 264, -935
118, -457, -575, 169, 346, -516, 1498, 511, 1963, 2196, 1067, -435
1299, 554, -745, -926, 1022, -95, 680, 85, 1978, 2918, 1848, 181
907, 1334, 427, -1120, 240, 881, 434, -270, 1780, 3070, 2449, 965
-465, 1469, 1934, -502, -1199, 1701, 714, -1207, 824, 2200, 2311, 1196
-961, 957, 1918, 2, -1439, 1437, 915, -1860, -37, 1153, 1500, 746
-719, 563, 1282, 78, -1000, 922, 985, -1530, 140, 1038, 1092, 318
-153, 376, 529, -111, -341, 452, 1029, -851, 608, 1270, 926, -30
-270, -77, 193, 173, -232, 58, 1372, -382, 984, 1444, 848, -265
7, -531, -538, 262, 272, -534, 1461, -278, 1010, 1321, 598, -590
-100, -588, -488, 344, 194, -538, 1482, -175, 1052, 1331, 590, -582
-621, -579, 42, 600, -332, -269, 1654, -77, 1199, 1477, 763, -432
-323, -592, -269, 457, -27, -431, 1587, -150, 1130, 1406, 653, -564
-677, -625, 52, 651, -365, -287, 1689, -64, 1217, 1528, 761, -397
-145, -583, -438, 364, 146, -511, 1551, -178, 1116, 1423, 583, -536
597, -589, -1186, -4, 891, -887, 1301, -238, 926, 1192, 232, -792
19, -670, -689, 325, 354, -679, 1471, -74, 1079, 1328, 518, -623
-479, -671, -192, 575, -144, -432, 1656, -10, 1230, 1532, 783, -494
-524, -688, -164, 606, -180, -426, 1669, -38, 1217, 1549, 746, -501
70, -618, -688, 274, 379, -653, 1468, -95, 1080, 1401, 520, -619
-281, -645, -364, 463, 41, -505, 1582, -28, 1169, 1466, 538, -492
-233, -648, -415, 440, 91, -532, 1580, -60, 1152, 1478, 559, -512
-90, -699, -609, 394, 259, -654, 1562, -20, 1168, 1495, 657, -594
-216, -670, -454, 443, 119, -562, 1577, 12, 1213, 1548, 713, -533
-20, -624, -604, 322, 292, -614, 1512, 76, 1182, 1475, 580, -561
12, -713, -725, 350, 368, -719, 1533, 76, 1188, 1451, 567, -638
-213, -707, -494, 460, 140, -601, 1597, 66, 1233, 1529, 639, -567
-1, -650, -649, 325, 324, -650, 1540, 86, 1206, 1513, 599, -596
175, -647, -822, 236, 498, -734, 1509, 153, 1216, 1464, 539, -673
31, -687, -718, 328, 374, -702, 1581, 217, 1285, 1519, 564, -628
-221, -804, -583, 512, 181, -694, 1681, 306, 1371, 1610, 541, -577
-377, -840, -463, 608, 43, -652, 1747, 365, 1423, 1598, 546, -549
179, -836, -1015, 328, 597, -925, 1607, 320, 1314, 1453, 452, -760
250, -872, -1122, 311, 686, -997, 1615, 364, 1329, 1485, 439, -805
-5, -869, -864, 437, 429, -867, 1697, 423, 1383, 1503, 458, -735
143, -889, -1032, 373, 587, -960, 1654, 430, 1366, 1472, 416, -772
193, -969, -1162, 388, 677, -1065, 1641, 416, 1347, 1453, 376, -798
83, -980, -1063, 448, 573, -1021, 1676, 418, 1361, 1470, 403, -744
-122, -876, -754, 499, 316, -815, 1696, 370, 1359, 1518, 468, -642
-74, -768, -694, 421, 310, -731, 1626, 262, 1293, 1504, 472, -671
27, -700, -727, 336, 377, -713, 1547, 158, 1230, 1485, 487, -630
-237, -700, -463, 468, 113, -582, 1585, 107, 1242, 1590, 604, -456
84, -634, -718, 275, 401, -676, 1459, 0, 1150, 1596, 611, -541
132, -527, -659, 197, 395, -593, 1385, -83, 1097, 1618, 686, -535
-69, -476, -407, 272, 169, -442, 1403, -127, 1077, 1641, 775, -431
-246, -453, -207, 349, -20, -330, 1431, -161, 1074, 1684, 821, -335
-145, -453, -308, 299, 81, -381, 1389, -154, 1065, 1683, 799, -337
72, -457, -529, 192, 300, -493, 1323, -178, 1032, 1662, 754, -385
89, -368, -457, 139, 273, -412, 1287, -136, 1091, 1792, 853, -307
116, -320, -436, 102, 276, -378, 1246, 73, 1300, 2029, 1009, -218
896, -487, -1383, -204, 1139, -935, 1050, 404, 1527, 2118, 867, -386
1041, -1007, -2048, -17, 1544, -1527, 1167, 820, 1717, 1944, 452, -690
773, -1793, -2566, 510, 1669, -2179, 1509, 857, 1377, 1081, -470, -1424
-205, -2575, -2370, 1390, 1082, -2473, 2083, 692, 1009, 380, -1042, -1908
-1223, -3047, -1824, 2135, 300, -2436, 2515, 287, 595, -31, -1245, -2011
-1496, -3007, -1511, 2251, 7, -2259, 2620, -190, 254, -218, -1337, -2020
-1683, -2298, -615, 1990, -534, -1457, 2541, -449, 335, 212, -822, -1572
-1192, -1365, -173, 1278, -510, -769, 2261, -400, 578, 760, -204, -1049
-1220, -965, 255, 1092, -738, -355, 2366, 60, 1141, 1363, 301, -667
-1055, -1092, -37, 1073, -509, -565, 2466, 332, 1344, 1488, 335, -711
-496, -1281, -785, 888, 144, -1033, 2340, 229, 1073, 1237, 121, -937
-516, -1338, -822, 927, 153, -1080, 2382, 55, 895, 1223, 140, -921
-924, -1334, -410, 1129, -257, -872, 2453, -111, 788, 1260, 263, -776
-1075, -1238, -163, 1156, -456, -701, 2289, -261, 711, 1326, 433, -637
-651, -1017, -366, 834, -143, -692, 1931, -333, 694, 1428, 506, -579
-479, -604, -125, 541, -177, -365, 1571, -295, 840, 1679, 750, -328
-476, -319, 157, 397, -317, -81, 1318, -279, 958, 1847, 934, -133
-288, -328, -40, 308, -124, -184, 1212, -342, 930, 1823, 901, -193
61, -324, -385, 131, 223, -354, 1077, -354, 852, 1758, 811, -298
-2, -310, -308, 156, 153, -309, 1113, -241, 912, 1820, 874, -247
-84, -284, -200, 184, 58, -242, 1155, -265, 948, 1879, 931, -178
325, -178, -503, -73, 414, -340, 992, -348, 843, 1767, 814, -233
225, -97, -322, -64, 273, -209, 1023, -270, 923, 1878, 970, -172
105, -52, -157, -26, 131, -104, 1067, -242, 979, 1943, 1049, -125
127, -10, -137, -58, 132, -73, 1058, -235, 999, 1969, 1062, -63
-138, 54, 192, 42, -165, 123, 1078, -196, 1071, 2092, 1165, 84
-121, 132, 253, -5, -187, 192, 992, -243, 1050, 2130, 1194, 104
341, 197, -144, -269, 243, 27, 835, -313, 973, 2075, 1135, 3
289, 208, -81, -248, 185, 64, 849, -247, 1055, 2167, 1230, 80
77, 311, 234, -194, -78, 273, 861, -205, 1136, 2296, 1395, 207
178, 498, 320, -338, -71, 409, 758, -281, 1104, 2309, 1465, 300
558, 637, 79, -597, 240, 358, 602, -319, 1067, 2307, 1459, 313
601, 725, 124, -663, 239, 425, 550, -272, 1120, 2416, 1561, 386
494, 807, 313, -650, 91, 560, 550, -218, 1216, 2547, 1707, 492
482, 904, 422, -693, 30, 663, 504, -212, 1251, 2590, 1714, 549
358, 939, 581, -648, -111, 760, 524, -182, 1326, 2691, 1807, 637
300, 920, 620, -610, -160, 770, 542, -150, 1391, 2768, 1885, 660
500, 920, 420, -710, 40, 670, 488, -94, 1363, 2705, 1809, 566
118, 833, 715, -475, -298, 774, 645, -18, 1443, 2732, 1835, 607
573, 740, 167, -656, 203, 454, 549, -138, 1283, 2489, 1549, 357
775, 566, -209, -670, 492, 179, 545, -134, 1200, 2301, 1273, 155
466, 339, -127, -402, 297, 106, 702, -91, 1193, 2228, 1165, 86
331, 202, -129, -266, 230, 37, 821, -56, 1174, 2158, 1136, 30
115, 50, -65, -82, 90, -7, 953, -34, 1176, 2102, 1113, -23
24, -86, -110, 31, 67, -98, 1037, -45, 1139, 1999, 972, -108
-37, -165, -128, 101, 45, -147, 1129, -42, 1117, 1933, 888, -151
-121, -258, -137, 189, 8, -198, 1209, -45, 1097, 1891, 832, -200
-152, -311, -159, 231, 3, -235, 1231, -85, 1042, 1814, 752, -238
-317, -354, -37, 335, -140, -196, 1281, -80, 1039, 1829, 776, -220
-647, -400, 247, 523, -447, -77, 1388, -22, 1112, 1949, 912, -114
-555, -440, 115, 497, -335, -163, 1362, -112, 1035, 1849, 801, -192
-376, -427, -51, 401, -163, -239, 1310, -183, 964, 1738, 701, -260
-408, -439, -31, 423, -189, -235, 1310, -190, 969, 1752, 705, -255
-28, -444, -416, 236, 194, -430, 1169, -210, 862, 1646, 574, -373
-178, -433, -255, 305, 38, -344, 1225, -83, 954, 1719, 662, -293
-50, -434, -384, 242, 167, -409, 1201, -167, 894, 1616, 584, -336
-193, -471, -278, 332, 42, -375, 1225, -170, 894, 1618, 611, -300
-427, -537, -110, 482, -159, -324, 1284, -142, 938, 1726, 757, -258
-301, -490, -189, 395, -56, -340, 1255, -153, 922, 1697, 713, -289
-218, -478, -260, 348, 21, -369, 1240, -195, 899, 1646, 631, -302
-49, -519, -470, 284, 210, -495, 1185, -198, 833, 1552, 538, -348
-274, -513, -239, 393, -18, -376, 1252, -136, 908, 1639, 628, -290
-412, -491, -79, 451, -167, -285, 1276, -156, 917, 1666, 677, -263
-254, -531, -277, 392, 11, -404, 1232, -201, 854, 1580, 599, -335
-398, -566, -168, 482, -115, -367, 1276, -184, 880, 1615, 610, -295
-355, -529, -174, 442, -91, -352, 1248, -211, 859, 1591, 581, -289
-307, -523, -216, 415, -46, -370, 1223, -213, 840, 1578, 593, -301
-515, -554, -39, 534, -238, -297, 1291, -184, 887, 1651, 679, -235
-251, -571, -320, 411, 34, -446, 1214, -246, 811, 1554, 565, -304
-205, -562, -357, 383, 76, -460, 1200, -222, 817, 1542, 555, -306
-569, -596, -27, 582, -271, -312, 1302, -170, 891, 1626, 665, -226
-518, -567, -49, 542, -235, -308, 1273, -220, 863, 1620, 670, -260
-586, -537, 49, 561, -318, -244, 1290, -215, 876, 1622, 680, -215
-243, -581, -338, 412, 47, -460, 1187, -264, 773, 1494, 524, -322
73, -542, -615, 234, 344, -578, 1083, -253, 724, 1445, 471, -427
-234, -572, -338, 403, 52, -455, 1166, -220, 778, 1504, 565, -338
-380, -597, -217, 488, -82, -407, 1209, -221, 804, 1533, 583, -291
-508, -586, -78, 547, -215, -332, 1238, -203, 839, 1572, 625, -235
-712, -619, 93, 665, -403, -263, 1291, -176, 873, 1594, 656, -175
-423, -585, -162, 504, -131, -374, 1221, -234, 806, 1538, 592, -246
-312, -583, -271, 447, -21, -427, 1181, -249, 782, 1514, 564, -279
-485, -612, -127, 548, -179, -370, 1229, -238, 815, 1527, 570, -269
-288, -627, -339, 457, 25, -483, 1163, -281, 751, 1447, 484, -346
-264, -643, -379, 453, 57, -511, 1144, -247, 743, 1438, 465, -328
-450, -605, -155, 527, -148, -380, 1184, -236, 772, 1489, 526, -240
-467, -594, -127, 530, -170, -361, 1209, -215, 800, 1546, 608, -252
-497, -636, -139, 566, -179, -388, 1239, -185, 835, 1565, 606, -282
-419, -625, -206, 522, -107, -416, 1196, -236, 779, 1480, 525, -304
-573, -593, -20, 583, -277, -307, 1212, -227, 793, 1508, 570, -221
-451, -613, -162, 532, -145, -388, 1202, -237, 790, 1508, 567, -255
-173, -607, -434, 390, 130, -521, 1128, -282, 734, 1454, 512, -339
-296, -577, -281, 436, -8, -429, 1142, -231, 760, 1483, 511, -277
-468, -554, -86, 511, -191, -320, 1205, -206, 800, 1483, 535, -225
-443, -531, -88, 487, -178, -310, 1181, -240, 767, 1457, 543, -258
-292, -531, -239, 411, -27, -385, 1135, -235, 740, 1441, 500, -300
-284, -552, -268, 418, -8, -410, 1140, -236, 746, 1445, 491, -287
-591, -587, 4, 589, -298, -292, 1230, -190, 818, 1526, 596, -200
-362, -563, -201, 462, -81, -382, 1157, -207, 777, 1460, 551, -274
-145, -549, -404, 347, 129, -477, 1082, -238, 716, 1386, 474, -337
-398, -603, -205, 500, -97, -404, 1164, -194, 770, 1452, 507, -268
-475, -605, -130, 540, -173, -368, 1197, -184, 806, 1498, 571, -246
-166, -556, -390, 361, 112, -473, 1106, -253, 716, 1384, 448, -324
-174, -503, -329, 338, 77, -416, 1085, -245, 706, 1358, 459, -285
-334, -527, -193, 430, -71, -360, 1131, -205, 765, 1445, 567, -256
-320, -524, -204, 422, -58, -364, 1110, -225, 749, 1433, 522, -282
-235, -483, -248, 359, 6, -366, 1040, -244, 729, 1415, 517, -280
-290, -484, -194, 387, -48, -339, 1041, -212, 770, 1443, 560, -235
-318, -497, -179, 407, -70, -338, 1058, -202, 779, 1445, 570, -198
-558, -458, 100, 508, -329, -179, 1115, -163, 829, 1544, 663, -136
-583, -428, 155, 505, -369, -137, 1114, -183, 823, 1544, 669, -100
-219, -405, -186, 312, -17, -296, 1016, -255, 730, 1431, 513, -198
-426, -417, 9, 421, -218, -204, 1074, -228, 765, 1470, 588, -153
-287, -404, -117, 345, -85, -261, 1049, -267, 731, 1394, 563, -181
-68, -433, -365, 250, 148, -399, 1002, -249, 714, 1357, 476, -200
-14, -433, -419, 223, 202, -426, 964, -238, 706, 1397, 532, -197
-372, -363, 9, 367, -191, -177, 1055, -211, 769, 1514, 658, -105
-362, -306, 56, 334, -209, -125, 1047, -253, 740, 1480, 626, -96
-71, -317, -246, 194, 87, -282, 983, -286, 680, 1380, 521, -180
-371, -406, -35, 388, -168, -221, 1089, -220, 749, 1427, 580, -125
-434, -426, 8, 430, -221, -209, 1135, -200, 788, 1465, 628, -121
-395, -480, -85, 437, -155, -283, 1145, -193, 777, 1429, 547, -185
-531, -595, -64, 563, -234, -330, 1168, -165, 761, 1393, 472, -220
-287, -595, -308, 441, 10, -452, 1083, -204, 685, 1283, 371, -264
-293, -582, -289, 437, -2, -436, 1086, -221, 676, 1300, 343, -255
-515, -583, -68, 549, -224, -326, 1162, -167, 747, 1431, 457, -206
-810, -561, 249, 685, -530, -156, 1250, -119, 829, 1486, 662, -120
-524, -544, -20, 534, -252, -282, 1160, -206, 756, 1384, 553, -222
3, -588, -591, 292, 297, -589, 1001, -275, 608, 1212, 301, -400
-344, -602, -258, 473, -43, -430, 1128, -191, 701, 1329, 432, -271
-526, -753, -227, 639, -150, -490, 1253, -153, 731, 1320, 393, -322
-356, -1059, -703, 707, 173, -881, 1284, 41, 749, 1175, 139, -582
-37, -979, -942, 508, 452, -961, 1195, 385, 1079, 1451, 272, -591
729, -179, -908, -275, 818, -543, 711, 448, 1486, 2274, 923, -89
1023, 790, -233, -906, 628, 279, 215, 257, 1693, 2969, 1796, 712
367, 1438, 1071, -902, -352, 1255, 161, -373, 1252, 2758, 2231, 1278
-791, 1340, 2131, -274, -1461, 1735, 447, -1403, 195, 1838, 1840, 1239
-1138, 817, 1955, 160, -1546, 1386, 611, -1669, -309, 1148, 1176, 810
-762, 467, 1229, 147, -995, 848, 641, -1151, 11, 1216, 970, 453
-408, 142, 550, 133, -479, 346, 808, -674, 389, 1343, 747, 119
-511, -257, 254, 384, -383, -2, 1055, -349, 610, 1333, 538, -89
-900, -508, 392, 704, -646, -58, 1249, -194, 741, 1379, 567, -96
-446, -548, -102, 497, -172, -325, 1150, -237, 663, 1281, 473, -248
-23, -577, -554, 300, 265, -566, 1038, -247, 604, 1191, 340, -407
-364, -545, -181, 454, -92, -363, 1125, -193, 686, 1266, 384, -289
-649, -577, 72, 613, -361, -253, 1197, -126, 754, 1336, 449, -177
-614, -618, -4, 616, -305, -311, 1188, -136, 738, 1317, 459, -219
-51, -597, -546, 324, 247, -572, 1009, -247, 575, 1165, 301, -435
-155, -639, -484, 397, 164, -562, 1061, -178, 638, 1239, 318, -420
-573, -646, -73, 609, -250, -360, 1185, -161, 719, 1320, 404, -246
-692, -627, 65, 659, -379, -281, 1213, -138, 753, 1335, 453, -176
-577, -643, -66, 610, -256, -355, 1170, -117, 729, 1287, 392, -195
-199, -670, -471, 434, 136, -571, 1053, -155, 648, 1212, 308, -360
-412, -693, -281, 552, -66, -487, 1111, -147, 681, 1248, 347, -347
-301, -665, -364, 483, 31, -515, 1079, -185, 630, 1186, 265, -350
-187, -681, -494, 434, 153, -588, 1052, -132, 642, 1207, 271, -397
-449, -693, -244, 571, -103, -469, 1153, -38, 743, 1308, 396, -326
-915, -681, 234, 798, -575, -224, 1305, 3, 855, 1421, 539, -141
-501, -680, -179, 590, -161, -430, 1178, -66, 745, 1272, 364, -257
-320, -723, -403, 521, 41, -563, 1118, -8, 717, 1210, 262, -351
-196, -758, -562, 477, 183, -660, 1110, -18, 699, 1160, 211, -450
-172, -746, -574, 459, 201, -660, 1121, -19, 698, 1134, 206, -425
-329, -784, -455, 556, 63, -620, 1175, 47, 747, 1182, 230, -402
-317, -835, -518, 576, 100, -677, 1187, 69, 743, 1152, 183, -427
-442, -884, -442, 663, 0, -663, 1250, 110, 777, 1157, 219, -403
-790, -956, -166, 873, -312, -561, 1375, 130, 853, 1232, 272, -341
-776, -988, -212, 882, -282, -600, 1380, 125, 829, 1193, 189, -360
-351, -1019, -668, 685, 158, -844, 1269, 150, 725, 1048, 18, -515
-814, -986, -172, 900, -321, -579, 1418, 270, 885, 1196, 188, -388
-515, -932, -417, 723, -49, -675, 1296, 164, 763, 1075, 143, -467
22, -925, -947, 451, 484, -936, 1143, 62, 627, 941, 15, -619
-479, -933, -454, 706, -13, -694, 1292, 60, 729, 1076, 139, -447
-294, -855, -561, 574, 133, -708, 1170, 2, 655, 1044, 86, -446
-354, -828, -474, 591, 60, -651, 1141, 59, 697, 1092, 185, -359
-358, -807, -449, 582, 45, -628, 1137, -2, 718, 1167, 272, -281
-501, -738, -237, 619, -132, -488, 1112, -57, 698, 1234, 321, -224
-1084, -675, 409, 879, -747, -133, 1245, -44, 802, 1414, 544, -34
-303, -597, -294, 450, -5, -446, 1019, -249, 615, 1265, 393, -248
160, -541, -701, 190, 430, -621, 838, -249, 506, 1154, 286, -340
-485, -543, -58, 514, -214, -301, 1003, -114, 668, 1319, 516, -96
-1068, -573, 495, 820, -782, -39, 1172, -100, 773, 1488, 720, 91
-619, -552, 67, 585, -343, -243, 1053, -296, 618, 1358, 540, -47
-77, -525, -448, 301, 185, -487, 899, -332, 517, 1225, 329, -214
-470, -544, -74, 507, -198, -309, 996, -216, 618, 1331, 493, -35
-608, -548, 60, 578, -334, -244, 1015, -162, 647, 1352, 591, 30
-781, -554, 227, 667, -504, -164, 1084, -79, 740, 1439, 641, 32
-119, -525, -406, 322, 143, -466, 888, -209, 558, 1222, 332, -206
-381, -578, -197, 479, -92, -388, 968, -201, 590, 1289, 432, -126
-618, -564, 54, 591, -336, -255, 1071, -165, 703, 1437, 632, -69
-639, -528, 111, 583, -375, -209, 1059, -183, 705, 1419, 565, -13
-723, -593, 130, 658, -427, -232, 1053, -142, 699, 1396, 547, 20
-474, -613, -139, 543, -168, -376, 986, -129, 643, 1340, 528, -81
-364, -609, -245, 486, -60, -427, 985, -185, 637, 1328, 469, -118
-335, -588, -253, 461, -41, -421, 960, -213, 604, 1287, 436, -105
-416, -592, -176, 504, -120, -384, 955, -172, 613, 1274, 462, -87
-808, -606, 202, 707, -505, -202, 1086, -60, 751, 1438, 579, 31
-640, -603, 37, 621, -339, -283, 1045, -131, 705, 1419, 599, -5
-165, -619, -454, 392, 144, -537, 872, -267, 518, 1214, 465, -169
-435, -609, -174, 522, -131, -392, 949, -142, 617, 1294, 563, -64
-345, -626, -281, 485, -32, -454, 930, -159, 593, 1276, 537, -74
-484, -628, -144, 556, -170, -386, 962, -179, 600, 1315, 568, -49
-681, -624, 57, 652, -369, -284, 1003, -170, 620, 1340, 601, 21
-737, -669, 68, 703, -403, -301, 1029, -162, 636, 1357, 610, 32
-471, -649, -178, 560, -147, -414, 953, -230, 567, 1271, 532, -50
-520, -655, -135, 587, -193, -395, 963, -184, 591, 1305, 539, -35
-781, -697, 84, 739, -433, -307, 1038, -232, 611, 1344, 582, 12
-99, -590, -491, 344, 196, -541, 809, -316, 435, 1131, 443, -141
-398, -627, -229, 512, -85, -428, 892, -177, 547, 1239, 560, -39
-791, -693, 98, 742, -445, -298, 1050, -178, 646, 1382, 706, 60
-405, -604, -199, 504, -103, -402, 940, -215, 565, 1282, 583, -25
-247, -508, -261, 377, 7, -385, 859, -196, 557, 1257, 559, -15
-308, -493, -185, 400, -62, -339, 854, -163, 590, 1330, 631, 12
-681, -552, 129, 616, -405, -212, 970, -147, 653, 1409, 710, 59
-525, -530, -5, 527, -260, -268, 906, -255, 567, 1325, 595, 18
-661, -493, 168, 577, -415, -163, 922, -223, 588, 1359, 651, 159
-451, -479, -28, 465, -212, -254, 838, -254, 532, 1303, 622, 110
-185, -392, -207, 288, 11, -300, 732, -305, 477, 1265, 654, 54
-157, -381, -224, 269, 33, -303, 724, -274, 475, 1291, 709, 60
-322, -445, -123, 383, -100, -284, 807, -244, 516, 1320, 678, 102
-773, -507, 266, 640, -520, -121, 957, -247, 579, 1385, 712, 200
-474, -513, -39, 493, -218, -276, 857, -273, 495, 1306, 643, 45
-222, -542, -320, 382, 49, -431, 792, -252, 460, 1247, 573, -29
-812, -665, 147, 738, -480, -259, 979, -208, 544, 1311, 635, 127
-651, -697, -46, 674, -303, -372, 961, -280, 499, 1265, 572, 44
-505, -715, -210, 610, -148, -463, 886, -324, 429, 1220, 504, -15
-686, -704, -18, 695, -334, -361, 912, -222, 466, 1252, 568, 30
-344, -671, -327, 507, -9, -499, 873, -342, 393, 1155, 511, -57
-377, -700, -323, 538, -27, -512, 869, -310, 395, 1155, 494, -35
-535, -690, -155, 612, -190, -423, 876, -199, 456, 1238, 571, 28
-406, -719, -313, 562, -47, -516, 852, -268, 413, 1195, 508, -57
-529, -692, -163, 610, -183, -428, 890, -268, 428, 1201, 531, -14
-1086, -736, 350, 911, -718, -193, 1082, -245, 507, 1303, 671, 116
-244, -925, -681, 584, 218, -803, 911, -247, 342, 1001, 260, -290
-298, -1124, -826, 711, 264, -975, 1024, 169, 643, 1147, 221, -335
-274, -668, -394, 471, 60, -531, 908, 538, 1233, 1972, 855, 117
939, 314, -625, -626, 782, -155, 135, 379, 1436, 2679, 1570, 637
875, 1164, 289, -1019, 293, 727, -190, -106, 1260, 2865, 2177, 1318
-180, 1459, 1639, -639, -909, 1549, -36, -1184, 257, 2109, 2159, 1611
-1130, 1051, 2181, 39, -1655, 1616, 219, -1868, -624, 1179, 1609, 1357
-951, 693, 1644, 129, -1297, 1168, 273, -1531, -521, 1009, 1203, 961
-715, 404, 1119, 155, -917, 761, 447, -916, -25, 1249, 1080, 706
-758, -89, 669, 423, -714, 290, 759, -543, 276, 1302, 875, 424
-793, -529, 264, 661, -529, -133, 923, -317, 387, 1232, 646, 185
-1143, -669, 474, 906, -809, -98, 1075, -239, 494, 1317, 723, 214
-622, -626, -4, 624, -309, -315, 918, -301, 385, 1189, 534, 77
156, -610, -766, 227, 461, -688, 671, -273, 251, 986, 288, -156
-58, -674, -616, 366, 279, -645, 758, -186, 321, 1071, 423, -134
-419, -699, -280, 559, -70, -490, 874, -156, 412, 1175, 533, -33
-416, -688, -272, 552, -72, -480, 866, -187, 389, 1154, 522, -27
-387, -674, -287, 530, -50, -481, 857, -180, 392, 1179, 540, -38
-530, -653, -123, 591, -204, -388, 885, -152, 428, 1212, 576, 28
-1004, -691, 313, 847, -659, -189, 1028, -98, 526, 1311, 672, 170
-731, -695, 36, 713, -384, -330, 955, -167, 459, 1247, 593, 95
1, -682, -683, 340, 342, -682, 721, -225, 304, 1057, 392, -146
-70, -651, -581, 360, 255, -616, 755, -147, 349, 1101, 410, -112
-198, -612, -414, 405, 108, -513, 784, -114, 388, 1142, 452, -52
-411, -669, -258, 540, -77, -464, 846, -80, 440, 1194, 534, 3
-951, -714, 237, 832, -594, -239, 1020, -24, 569, 1341, 687, 157
-686, -734, -48, 710, -319, -391, 931, -85, 484, 1252, 580, 43
-180, -677, -497, 428, 158, -587, 775, -53, 420, 1169, 473, -97
-166, -657, -491, 411, 162, -574, 796, -18, 437, 1162, 463, -91
-294, -697, -403, 495, 54, -550, 849, 24, 490, 1186, 452, -54
-232, -657, -425, 444, 96, -541, 842, 68, 515, 1174, 425, -38
-137, -684, -547, 410, 205, -616, 835, 147, 524, 1156, 415, -104
-305, -739, -434, 522, 64, -587, 912, 218, 591, 1210, 449, -104
-187, -788, -601, 487, 207, -695, 890, 195, 560, 1136, 336, -154
-134, -847, -713, 490, 289, -780, 894, 221, 554, 1097, 281, -200
-179, -836, -657, 507, 239, -747, 925, 267, 596, 1128, 311, -171
-324, -859, -535, 591, 105, -697, 977, 298, 625, 1117, 287, -129
-679, -1006, -327, 842, -176, -667, 1097, 324, 668, 1155, 341, -82
-376, -1011, -635, 693, 129, -823, 1014, 227, 566, 1091, 255, -238
-316, -883, -567, 599, 125, -725, 973, 193, 565, 1108, 275, -206
116, -780, -896, 332, 506, -838, 781, 121, 449, 995, 178, -232
136, -740, -876, 302, 506, -808, 737, 117, 428, 1029, 245, -193
-143, -699, -556, 421, 206, -628, 782, 24, 430, 1120, 400, -109
-230, -599, -369, 414, 69, -484, 765, -73, 402, 1154, 474, -15
-292, -509, -217, 400, -38, -363, 755, -138, 390, 1214, 555, 103
-588, -514, 74, 551, -331, -220, 810, -145, 419, 1278, 667, 210
-623, -504, 119, 563, -371, -193, 801, -204, 395, 1282, 690, 221
-93, -476, -383, 284, 145, -430, 624, -313, 249, 1149, 545, 51
-93, -468, -375, 280, 141, -422, 609, -312, 237, 1152, 561, 73
-206, -457, -251, 331, 22, -354, 649, -303, 267, 1195, 591, 137
-286, -447, -161, 366, -63, -304, 685, -296, 290, 1195, 583, 158
-444, -502, -58, 473, -193, -280, 730, -301, 306, 1240, 642, 146
-648, -485, 163, 566, -406, -161, 782, -286, 338, 1327, 746, 232
-548, -422, 126, 485, -337, -148, 747, -286, 338, 1313, 719, 242
-364, -412, -48, 388, -158, -230, 690, -282, 319, 1267, 648, 194
-59, -423, -364, 241, 152, -394, 611, -266, 269, 1174, 566, 109
-52, -406, -354, 229, 151, -380, 601, -279, 267, 1164, 571, 102
-260, -447, -187, 353, -37, -317, 647, -280, 294, 1193, 599, 144
-314, -456, -142, 385, -86, -299, 672, -268, 304, 1210, 593, 168
-365, -448, -83, 406, -141, -266, 705, -217, 354, 1260, 654, 169
-507, -437, 70, 472, -289, -184, 758, -183, 419, 1339, 718, 209
-312, -435, -123, 373, -95, -279, 686, -278, 316, 1211, 610, 210
-351, -464, -113, 407, -119, -289, 668, -259, 309, 1231, 662, 199
-173, -412, -239, 292, 33, -326, 632, -246, 303, 1202, 550, 123
-99, -429, -330, 264, 115, -380, 617, -307, 257, 1126, 485, 78
-292, -452, -160, 372, -66, -306, 676, -277, 313, 1236, 637, 116
-269, -449, -180, 359, -45, -315, 660, -200, 325, 1237, 665, 154
-385, -439, -54, 412, -166, -247, 672, -187, 337, 1248, 698, 212
-62, -417, -355, 239, 146, -386, 580, -294, 236, 1152, 557, 68
-53, -388, -335, 220, 141, -362, 609, -292, 251, 1160, 537, 85
-165, -326, -161, 245, -2, -244, 647, -269, 287, 1177, 580, 189
-198, -316, -118, 257, -40, -217, 649, -278, 285, 1209, 614, 187
-251, -371, -120, 311, -66, -246, 704, -248, 320, 1281, 655, 156
-217, -362, -145, 289, -36, -254, 706, -231, 333, 1272, 652, 141
-190, -318, -128, 254, -31, -223, 675, -247, 314, 1223, 609, 153
-125, -228, -103, 176, -11, -166, 654, -240, 343, 1274, 671, 236
-70, -165, -95, 117, 12, -130, 581, -249, 349, 1333, 744, 272
-239, -174, 65, 206, -152, -55, 571, -258, 355, 1351, 759, 298
-299, -207, 92, 253, -196, -58, 585, -299, 332, 1312, 734, 335
-11, -187, -176, 99, 82, -182, 486, -348, 245, 1207, 662, 271
-253, -223, 30, 238, -142, -97, 551, -270, 307, 1262, 721, 292
-561, -296, 265, 428, -413, -16, 648, -293, 340, 1308, 754, 335
-176, -355, -179, 265, 1, -267, 551, -379, 212, 1173, 615, 177
200, -396, -596, 98, 398, -496, 467, -340, 162, 1098, 509, 54
-29, -475, -446, 252, 208, -461, 512, -285, 189, 1108, 536, 90
-495, -505, -10, 500, -243, -258, 664, -281, 272, 1189, 641, 215
-425, -485, -60, 455, -183, -273, 634, -370, 218, 1158, 556, 152
59, -486, -545, 213, 302, -515, 461, -364, 98, 1001, 351, -34
-78, -397, -319, 237, 120, -358, 538, -306, 181, 1076, 498, 95
-165, -407, -242, 286, 38, -325, 551, -346, 168, 1071, 521, 111
-359, -463, -104, 411, -128, -284, 597, -323, 196, 1104, 559, 120
-538, -513, 25, 525, -282, -244, 681, -287, 263, 1210, 675, 188
-232, -614, -382, 423, 75, -498, 649, -311, 207, 1108, 523, 39
-526, -896, -370, 711, -78, -633, 800, -253, 221, 1004, 361, -59
-205, -962, -757, 583, 276, -860, 759, -8, 355, 1015, 210, -229
758, -460, -1218, -149, 988, -839, 373, 336, 758, 1553, 517, -106
1365, 544, -821, -954, 1093, -138, -150, 388, 1207, 2523, 1440, 642
1170, 1481, 311, -1325, 430, 896, -463, 34, 1174, 2872, 2226, 1434
-107, 1707, 1814, -800, -960, 1760, -362, -1088, 196, 2146, 2260, 1748
-971, 1226, 2197, -127, -1584, 1711, -154, -1951, -827, 1090, 1595, 1447
-530, 819, 1349, -144, -939, 1084, -91, -1641, -781, 863, 1104, 963
-244, 549, 793, -152, -518, 671, 78, -1030, -287, 1103, 988, 693
-336, 41, 377, 147, -356, 209, 380, -619, 12, 1136, 760, 394
-332, -405, -73, 368, -130, -239, 572, -390, 137, 1092, 556, 160
-566, -465, 101, 515, -334, -182, 691, -333, 212, 1118, 577, 191
-410, -421, -11, 415, -200, -216, 656, -364, 188, 1073, 535, 131
-247, -326, -79, 286, -84, -203, 717, -184, 303, 1134, 569, 187
-472, -388, 84, 430, -278, -152, 843, -181, 380, 1195, 615, 263
-81, -556, -475, 318, 197, -516, 587, -317, 159, 1002, 416, 27
-34, -608, -574, 321, 270, -591, 526, -267, 156, 1021, 418, -16
-69, -548, -479, 308, 205, -514, 551, -204, 227, 1081, 447, 9
-362, -601, -239, 481, -62, -420, 644, -172, 273, 1091, 465, 62
-1013, -646, 367, 829, -690, -140, 876, -112, 411, 1240, 645, 247
-594, -562, 32, 578, -313, -265, 766, -263, 291, 1116, 538, 150
133, -436, -569, 151, 351, -502, 531, -276, 177, 982, 367, -14
85, -477, -562, 196, 323, -519, 548, -170, 242, 988, 332, 2
-105, -576, -471, 340, 183, -524, 605, -161, 262, 1008, 373, 29
-183, -577, -394, 380, 105, -486, 680, -119, 327, 1103, 470, 15
-238, -574, -336, 406, 49, -455, 733, -72, 370, 1124, 453, -4
-788, -594, 194, 691, -491, -200, 905, -28, 487, 1253, 592, 166
-631, -570, 61, 600, -346, -255, 867, -59, 457, 1203, 572, 164
240, -470, -710, 115, 475, -590, 591, -37, 330, 1021, 341, -46
181, -507, -688, 163, 434, -597, 619, 54, 394, 1058, 354, -42
-495, -620, -125, 557, -185, -373, 880, 31, 514, 1189, 497, 85
-397, -663, -266, 530, -66, -465, 863, 72, 482, 1128, 407, -20
-222, -635, -413, 428, 95, -524, 813, 314, 575, 1147, 371, -33
-358, -721, -363, 539, 2, -542, 916, 319, 637, 1152, 367, -5
-243, -794, -551, 518, 154, -673, 913, 299, 616, 1090, 269, -77
-77, -775, -698, 426, 310, -737, 851, 311, 580, 1068, 226, -146
230, -749, -979, 259, 604, -864, 760, 301, 514, 946, 156, -257
64, -865, -929, 400, 496, -897, 828, 331, 545, 924, 145, -251
-359, -923, -564, 641, 102, -744, 975, 341, 630, 1000, 209, -127
-417, -858, -441, 637, 12, -650, 963, 310, 620, 1059, 235, -58
103, -730, -833, 313, 468, -781, 738, 232, 502, 998, 143, -151
45, -622, -667, 288, 356, -644, 710, 173, 497, 1041, 289, -96
-155, -557, -402, 356, 123, -480, 716, 74, 488, 1130, 422, -32
-165, -509, -344, 337, 89, -427, 682, -39, 418, 1109, 419, 22
-376, -503, -127, 439, -125, -315, 725, -140, 415, 1150, 486, 131
-807, -527, 280, 667, -544, -124, 810, -134, 450, 1273, 617, 288
-1000, -477, 523, 738, -762, 23, 850, -132, 454, 1313, 694, 390
-64, -317, -253, 190, 94, -285, 543, -260, 283, 1118, 544, 161
101, -280, -381, 89, 241, -330, 466, -158, 294, 1132, 557, 137
-375, -361, 14, 368, -195, -174, 599, -142, 342, 1212, 654, 240
-58, -324, -266, 191, 104, -295, 516, -254, 248, 1085, 528, 136
-45, -285, -240, 165, 97, -263, 508, -255, 272, 1134, 575, 166
-183, -251, -68, 217, -58, -160, 536, -216, 390, 1333, 729, 272
-313, -267, 46, 290, -180, -111, 571, 4, 648, 1628, 876, 420
-103, -484, -381, 293, 139, -433, 560, 440, 999, 1841, 876, 346
860, -955, -1815, 47, 1337, -1385, 447, 844, 1039, 1424, 266, -278
1016, -1720, -2736, 352, 1876, -2228, 708, 1150, 804, 471, -737, -1033
-336, -2475, -2139, 1405, 901, -2307, 1392, 936, 441, -241, -1310, -1339
-1211, -2989, -1778, 2100, 283, -2384, 1737, 216, -245, -873, -1705, -1557
-1525, -2835, -1310, 2180, -108, -2073, 1697, -361, -667, -998, -1615, -1416
-1654, -1932, -278, 1793, -688, -1105, 1551, -554, -530, -454, -889, -771
-1435, -1170, 265, 1302, -850, -453, 1492, -464, -166, 148, -306, -343
-1712, -1041, 671, 1376, -1192, -185, 1769, -42, 426, 726, 86, -95
-1573, -1208, 365, 1390, -969, -422, 1860, 169, 571, 827, 134, -118
-871, -1304, -433, 1087, -219, -869, 1686, 166, 317, 624, -54, -348
-945, -1367, -422, 1156, -262, -895, 1765, -48, 133, 600, -7, -356
-903, -1217, -314, 1060, -295, -766, 1647, -218, -7, 618, 85, -236
-1053, -987, 66, 1020, -560, -461, 1461, -287, -9, 755, 292, -32
-839, -783, 56, 811, -448, -364, 1132, -398, -8, 882, 443, 23
-228, -323, -95, 275, -67, -209, 617, -314, 116, 1076, 625, 206
-600, -95, 505, 347, -553, 205, 623, -245, 368, 1337, 893, 534
-625, -160, 465, 392, -545, 152, 605, -352, 310, 1309, 869, 482
116, -92, -208, -12, 162, -150, 305, -280, 196, 1227, 744, 291
-57, -17, 40, 37, -49, 11, 345, -209, 282, 1313, 854, 402
-406, 3, 409, 201, -407, 206, 448, -215, 363, 1398, 949, 518
-494, 34, 528, 230, -511, 281, 465, -272, 372, 1420, 989, 589
-264, 46, 310, 109, -287, 178, 331, -332, 288, 1353, 933, 535
-63, 144, 207, -40, -135, 175, 228, -319, 284, 1369, 955, 546
-18, 169, 187, -75, -102, 178, 209, -305, 303, 1419, 1002, 572
-173, 183, 356, -5, -264, 269, 243, -278, 351, 1496, 1080, 644
-169, 239, 408, -35, -288, 323, 234, -282, 380, 1518, 1098, 692
-422, 245, 667, 88, -544, 456, 276, -280, 437, 1590, 1215, 818
-271, 353, 624, -41, -447, 488, 193, -313, 422, 1652, 1294, 814
189, 596, 407, -392, -109, 502, 47, -287, 432, 1723, 1326, 784
-32, 671, 703, -319, -367, 687, 76, -208, 555, 1883, 1501, 922
-248, 702, 950, -227, -599, 826, 92, -230, 630, 1987, 1620, 1051
-14, 859, 873, -422, -443, 866, -29, -286, 615, 2020, 1648, 1099
509, 1022, 513, -765, -2, 768, -245, -248, 596, 2039, 1612, 1040
343, 1126, 783, -734, -220, 955, -208, -138, 733, 2190, 1736, 1182
89, 1158, 1069, -623, -490, 1114, -112, -98, 854, 2319, 1851, 1281
216, 1175, 959, -695, -371, 1067, -162, -89, 866, 2332, 1861, 1241
236, 1151, 915, -693, -339, 1033, -174, -46, 869, 2293, 1815, 1238
85, 1084, 999, -584, -457, 1042, -111, -29, 868, 2236, 1778, 1205
-19, 903, 922, -442, -470, 912, -25, -43, 823, 2138, 1659, 1059
113, 723, 610, -418, -248, 667, 8, -81, 735, 1949, 1412, 896
234, 570, 336, -402, -51, 453, 47, -112, 641, 1731, 1167, 767
75, 343, 268, -209, -96, 306, 150, -82, 595, 1599, 1021, 655
-209, 173, 382, 18, -295, 277, 307, -57, 613, 1568, 980, 615
-304, 85, 389, 109, -346, 237, 426, -78, 588, 1498, 919, 590
-278, -38, 240, 158, -259, 101, 487, -39, 551, 1395, 785, 499
-548, -166, 382, 357, -465, 108, 625, -31, 565, 1373, 748, 478
-511, -238, 273, 374, -392, 17, 622, -32, 510, 1296, 654, 438
-702, -373, 329, 537, -516, -22, 733, -63, 538, 1305, 653, 500
-807, -574, 233, 690, -520, -171, 807, -187, 522, 1324, 610, 479
-199, -517, -318, 358, 59, -418, 590, -70, 412, 1237, 451, 330
-99, -497, -398, 298, 149, -448, 570, -1, 415, 1194, 332, 276
-295, -496, -201, 395, -47, -349, 621, -66, 396, 1135, 327, 276
-453, -548, -95, 500, -179, -322, 697, -40, 487, 1279, 661, 305
-476, -498, -22, 487, -227, -260, 680, -78, 482, 1365, 832, 320
-481, -323, 158, 402, -320, -83, 655, -148, 404, 1250, 742, 338
-581, -277, 304, 429, -443, 13, 677, -179, 388, 1192, 663, 359
-596, -262, 334, 429, -465, 36, 654, -250, 326, 1140, 605, 343
-419, -272, 147, 345, -283, -63, 577, -231, 303, 1104, 508, 292
-377, -260, 117, 318, -247, -72, 590, -179, 316, 1085, 501, 332
-483, -336, 147, 409, -315, -95, 660, -187, 345, 1128, 606, 360
-803, -429, 374, 616, -589, -28, 718, -220, 364, 1153, 595, 399
-747, -454, 293, 600, -520, -81, 680, -196, 339, 1131, 535, 384
-373, -485, -112, 429, -131, -299, 614, -169, 339, 1066, 445, 321
-258, -424, -166, 341, -46, -295, 657, -144, 379, 1085, 495, 374
-321, -448, -127, 384, -97, -288, 635, -148, 360, 1133, 544, 401
-553, -574, -21, 563, -266, -298, 595, -205, 295, 1099, 533, 359
-585, -524, 61, 554, -323, -232, 631, -263, 264, 1038, 472, 330
-432, -403, 29, 417, -231, -187, 674, -246, 282, 1025, 453, 357
-910, -489, 421, 699, -666, -34, 793, -183, 360, 1127, 569, 480
-1284, -613, 671, 948, -978, 29, 824, -271, 338, 1158, 615, 484
-393, -568, -175, 480, -109, -372, 516, -332, 174, 947, 358, 222
-377, -539, -162, 458, -108, -351, 539, -268, 195, 959, 350, 254
-560, -472, 88, 516, -324, -192, 604, -205, 259, 1050, 441, 361
-336, -407, -71, 371, -133, -239, 541, -207, 258, 1047, 405, 319
-501, -459, 42, 480, -272, -209, 596, -250, 259, 1042, 402, 339
-797, -521, 276, 659, -537, -123, 699, -275, 272, 1031, 432, 406
-670, -453, 217, 561, -444, -118, 640, -256, 257, 977, 390, 410
-442, -459, -17, 450, -213, -238, 569, -258, 219, 911, 295, 341
-529, -571, -42, 550, -244, -307, 626, -231, 255, 994, 339, 321
-567, -598, -31, 582, -268, -315, 636, -228, 268, 1006, 350, 328
-854, -587, 267, 720, -561, -160, 738, -194, 336, 1087, 476, 431
-946, -563, 383, 754, -665, -90, 790, -246, 342, 1140, 555, 449
-511, -521, -10, 516, -251, -266, 638, -308, 248, 1029, 384, 303
-527, -565, -38, 546, -245, -302, 617, -256, 236, 971, 308, 292
-908, -589, 319, 748, -614, -135, 725, -180, 320, 1045, 406, 397
-1162, -566, 596, 864, -879, 15, 793, -193, 363, 1130, 512, 517
-245, -477, -232, 361, -7, -355, 488, -249, 200, 934, 266, 288
-246, -491, -245, 368, -1, -368, 518, -207, 231, 899, 217, 249
-490, -533, -43, 511, -224, -288, 636, -233, 265, 953, 306, 299
-421, -533, -112, 477, -155, -323, 604, -214, 253, 958, 305, 283
-560, -581, -21, 570, -270, -301, 598, -230, 247, 951, 303, 296
-437, -427, 10, 432, -224, -209, 677, -185, 317, 1033, 382, 370
-33, -47, -14, 40, -10, -31, 867, -10, 479, 1164, 476, 503
56, 90, 34, -73, 11, 62, 833, 61, 531, 1182, 481, 545
-483, -449, 34, 466, -259, -208, 532, -193, 306, 978, 313, 358
-1045, -1005, 40, 1025, -543, -483, 476, -431, 96, 808, 153, 173
-1097, -951, 146, 1024, -622, -403, 575, -407, 117, 835, 138, 207
-922, -758, 164, 840, -543, -297, 611, -358, 159, 881, 183, 259
-850, -687, 163, 768, -507, -262, 647, -324, 194, 921, 243, 274
-969, -670, 299, 819, -634, -186, 707, -261, 268, 971, 290, 343
-854, -616, 238, 735, -546, -189, 678, -260, 262, 932, 246, 338
-404, -508, -104, 456, -150, -306, 588, -315, 174, 814, 126, 227
-543, -478, 65, 510, -304, -207, 677, -249, 247, 882, 183, 291
-811, -596, 215, 703, -513, -191, 630, -280, 235, 866, 168, 299
-464, -353, 111, 408, -288, -121, 665, -228, 277, 912, 215, 361
-181, 225, 406, -22, -293, 315, 938, 66, 579, 1234, 529, 649
-335, -187, 148, 261, -242, -20, 500, -166, 351, 1003, 292, 414
-663, -804, -141, 733, -261, -473, 210, -488, 16, 657, -51, 109
-818, -797, 21, 807, -420, -388, 436, -431, 73, 700, -9, 162
-799, -601, 198, 700, -499, -202, 530, -380, 139, 693, 10, 279
-761, -515, 246, 638, -504, -135, 546, -359, 154, 745, 72, 318
-720, -565, 155, 642, -438, -205, 599, -291, 225, 909, 174, 245
-713, -558, 155, 635, -434, -202, 623, -269, 257, 907, 168, 225
-668, -504, 164, 586, -416, -170, 601, -271, 256, 892, 149, 259
-593, -431, 162, 512, -378, -135, 570, -284, 247, 881, 122, 278
-600, -327, 273, 463, -437, -27, 549, -323, 219, 841, 126, 392
-812, -313, 499, 562, -656, 93, 593, -295, 260, 893, 225, 491
-880, -382, 498, 631, -689, 58, 627, -274, 283, 928, 210, 430
-677, -416, 261, 546, -469, -78, 611, -308, 230, 841, 97, 362
-608, -398, 210, 503, -409, -94, 611, -303, 225, 750, 35, 355
-563, -482, 81, 522, -322, -201, 587, -332, 185, 671, -85, 260
-728, -640, 88, 684, -408, -276, 644, -327, 187, 700, -93, 189
-773, -627, 146, 700, -460, -241, 653, -290, 227, 763, -24, 197
-751, -595, 156, 673, -454, -220, 657, -215, 255, 787, 2, 209
-735, -624, 111, 679, -423, -257, 671, -221, 250, 742, -64, 179
-732, -603, 129, 667, -431, -237, 659, -251, 242, 729, -76, 203
-764, -621, 143, 692, -454, -239, 675, -263, 233, 736, -76, 208
-764, -651, 113, 707, -439, -269, 694, -264, 231, 721, -108, 195
-910, -663, 247, 786, -579, -208, 730, -228, 280, 766, -53, 206
-949, -780, 169, 864, -559, -306, 800, -201, 283, 689, -155, 123
-936, -1022, -86, 979, -425, -554, 904, -86, 311, 585, -356, -7
-796, -1009, -213, 902, -292, -611, 893, 272, 638, 833, -305, 19
28, -411, -439, 191, 233, -425, 421, 465, 1065, 1519, 166, 332
801, 510, -291, -655, 546, 110, -253, 368, 1265, 2264, 983, 928
596, 1281, 685, -938, -44, 983, -481, -167, 915, 2241, 1473, 1486
-944, 1311, 2255, -183, -1599, 1783, -129, -1321, -125, 1334, 1308, 1690
-1584, 792, 2376, 396, -1980, 1584, 117, -1816, -803, 497, 694, 1317
-1030, 491, 1521, 269, -1275, 1006, 110, -1280, -516, 517, 371, 922
-792, 266, 1058, 263, -925, 662, 311, -714, -45, 716, 255, 714
-880, -247, 633, 563, -757, 193, 606, -396, 176, 684, -16, 442
-939, -705, 234, 822, -587, -236, 761, -242, 229, 573, -285, 182
-952, -758, 194, 855, -573, -282, 787, -233, 258, 592, -236, 132
-887, -726, 161, 806, -524, -283, 759, -242, 269, 606, -231, 123
-761, -759, 2, 760, -382, -379, 714, -186, 254, 533, -325, 91
-774, -788, -14, 781, -380, -401, 709, -141, 275, 488, -332, 123
-813, -793, 20, 803, -417, -387, 734, -141, 279, 499, -338, 118
-801, -813, -12, 807, -395, -413, 751, -120, 305, 567, -323, 61
-809, -861, -52, 835, -379, -457, 753, -111, 315, 581, -336, 23
-877, -892, -15, 884, -431, -454, 781, -119, 315, 546, -354, 47
-759, -727, 32, 743, -396, -348, 834, -75, 374, 586, -297, 153
-839, -523, 316, 681, -578, -104, 979, 20, 513, 721, -155, 310
-1139, -784, 355, 961, -747, -215, 925, -80, 422, 608, -263, 212
-834, -1004, -170, 919, -332, -587, 682, -146, 266, 398, -516, -25
-629, -994, -365, 811, -132, -680, 640, -166, 231, 327, -603, -92
-637, -951, -314, 794, -162, -633, 646, -94, 233, 365, -563, -73
-699, -906, -207, 802, -246, -557, 800, 80, 384, 497, -446, -7
-619, -820, -201, 719, -209, -511, 874, 114, 460, 541, -423, 26
-717, -863, -146, 790, -286, -505, 746, 73, 415, 482, -471, 40
-759, -881, -122, 820, -319, -502, 783, 51, 395, 438, -497, 28
-795, -968, -173, 881, -311, -571, 834, 50, 390, 427, -521, -20
-990, -1154, -164, 1072, -413, -659, 830, 32, 359, 342, -611, -70
-1096, -1205, -109, 1150, -494, -657, 889, 77, 388, 316, -660, -94
-714, -946, -232, 830, -241, -589, 987, 222, 514, 417, -594, -45
-135, -448, -313, 291, 89, -381, 1172, 438, 702, 567, -450, 93
-447, -813, -366, 630, -41, -590, 921, 358, 592, 383, -650, -66
-1076, -1475, -399, 1275, -339, -937, 733, 135, 352, 124, -898, -310
-1182, -1535, -353, 1358, -415, -944, 943, 146, 379, 171, -871, -323
-1214, -1387, -173, 1300, -521, -780, 1087, 225, 474, 227, -814, -219
-989, -1306, -317, 1147, -336, -812, 1039, 233, 460, 160, -873, -254
-728, -1223, -495, 975, -117, -859, 944, 204, 419, 83, -954, -273
-845, -1197, -352, 1021, -247, -775, 994, 209, 459, 174, -853, -189
-941, -1153, -212, 1047, -365, -683, 1034, 171, 499, 296, -715, -140
-837, -995, -158, 916, -340, -577, 913, 112, 454, 288, -707, -100
-768, -869, -101, 818, -334, -485, 819, 83, 424, 306, -692, -38
-976, -851, 125, 913, -551, -363, 852, 51, 448, 367, -599, 33
-1101, -890, 211, 995, -656, -340, 850, 3, 443, 366, -572, 79
-798, -789, 9, 793, -404, -390, 728, -73, 367, 326, -630, 59
-640, -724, -84, 682, -278, -404, 670, -147, 312, 301, -635, 62
-739, -747, -8, 743, -366, -378, 679, -131, 316, 345, -593, 75
-979, -788, 191, 883, -585, -299, 747, -115, 364, 412, -495, 130
-920, -786, 134, 853, -527, -326, 711, -106, 353, 412, -510, 134
-677, -738, -61, 707, -308, -400, 651, -76, 339, 376, -616, 86
-823, -804, 19, 813, -421, -393, 726, -116, 363, 344, -651, 109
-979, -815, 164, 897, -572, -326, 764, -150, 348, 340, -622, 118
-985, -814, 171, 899, -578, -322, 778, -136, 351, 396, -538, 71
-840, -803, 37, 821, -439, -383, 741, -63, 395, 466, -495, 60
-868, -740, 128, 804, -498, -306, 730, -27, 437, 523, -476, 117
-826, -809, 17, 817, -422, -396, 747, -75, 394, 437, -596, 54
-760, -794, -34, 777, -363, -414, 820, -34, 428, 415, -637, 59
-872, -775, 97, 823, -485, -339, 800, -1, 453, 465, -566, 126
-858, -919, -61, 888, -399, -490, 697, -65, 373, 340, -680, 12
-787, -964, -177, 875, -305, -571, 679, -83, 331, 282, -753, -36
-767, -870, -103, 818, -332, -487, 684, -30, 371, 325, -712, 8
-921, -873, 48, 897, -485, -413, 781, -8, 428, 392, -654, 40
-1336, -977, 359, 1156, -848, -309, 941, -21, 497, 481, -560, 137
-911, -912, -1, 911, -455, -457, 748, -60, 398, 389, -660, 27
-443, -822, -379, 632, -32, -601, 580, -9, 317, 255, -783, -70
-651, -871, -220, 761, -216, -546, 664, 47, 369, 288, -749, -24
-771, -947, -176, 859, -298, -562, 749, 8, 384, 307, -751, -61
-762, -983, -221, 872, -271, -602, 766, -22, 363, 304, -796, -78
-1267, -922, 345, 1094, -806, -289, 872, 96, 485, 459, -599, 172
-1473, -738, 735, 1105, -1104, -2, 1080, 100, 591, 543, -427, 318
-552, -527, 25, 539, -289, -251, 964, -42, 454, 381, -611, 99
-120, -635, -515, 377, 197, -575, 541, 19, 305, 220, -833, -103
-634, -860, -226, 747, -204, -543, 549, 92, 333, 241, -796, -64
-909, -872, 37, 890, -473, -418, 660, 38, 370, 298, -696, 10
-863, -753, 110, 808, -487, -322, 691, -15, 379, 326, -657, 59
-909, -673, 236, 791, -573, -219, 682, 7, 401, 393, -585, 161
-809, -654, 155, 731, -482, -250, 557, -28, 348, 338, -633, 165
-656, -701, -45, 678, -306, -373, 524, -100, 270, 213, -747, 88
-1009, -784, 225, 896, -617, -280, 685, -22, 351, 314, -653, 134
-1536, -888, 648, 1212, -1092, -120, 920, 1, 460, 441, -526, 214
-833, -931, -98, 882, -368, -515, 711, -123, 282, 223, -795, -57
-288, -868, -580, 578, 146, -724, 479, -24, 202, 106, -930, -174
-659, -918, -259, 788, -200, -589, 586, 44, 262, 171, -857, -47
-859, -984, -125, 921, -367, -555, 674, 3, 268, 159, -844, -32
-938, -969, -31, 953, -454, -500, 696, -46, 261, 156, -821, -36
-1199, -999, 200, 1099, -700, -400, 757, -41, 298, 191, -788, 60
-931, -1023, -92, 977, -420, -558, 691, -78, 239, 112, -868, 1
-603, -1012, -409, 807, -97, -711, 621, -4, 240, 156, -880, -90
-776, -1013, -237, 894, -270, -625, 660, 26, 279, 189, -846, -72
-914, -1033, -119, 973, -398, -576, 687, -8, 273, 176, -831, -61
-995, -1134, -139, 1064, -428, -637, 768, 4, 277, 108, -922, -106
-980, -1455, -475, 1217, -253, -965, 852, 87, 260, -95, -1207, -299
-720, -1615, -895, 1167, 87, -1255, 829, 462, 494, 13, -1284, -374
-240, -952, -712, 596, 236, -832, 549, 751, 1056, 910, -596, 32
240, 158, -82, -199, 161, 38, -11, 545, 1379, 1889, 469, 791
229, 1000, 771, -614, -271, 886, -360, 49, 1050, 1899, 983, 1383
-790, 1126, 1916, -168, -1353, 1521, -200, -926, 8, 968, 750, 1527
-1642, 509, 2151, 566, -1896, 1330, 123, -1489, -739, 67, 64, 1176
-1447, 45, 1492, 701, -1469, 768, 224, -1126, -556, -52, -342, 757
-1118, -264, 854, 691, -986, 295, 371, -609, -125, 138, -504, 449
-1111, -707, 404, 909, -758, -152, 631, -231, 165, 187, -700, 203
-1148, -1044, 104, 1096, -626, -470, 770, -44, 272, 103, -895, 56
-1096, -1138, -42, 1117, -527, -590, 776, -26, 268, 34, -964, 1
-839, -1156, -317, 997, -261, -737, 719, 16, 245, 65, -956, -93
-675, -1147, -472, 911, -102, -810, 699, 2, 241, 66, -983, -157
-750, -1116, -366, 933, -192, -741, 700, 57, 277, 64, -1002, -120
-811, -1162, -351, 986, -230, -757, 710, 118, 307, 46, -1043, -138
-889, -1199, -310, 1044, -290, -755, 744, 93, 328, 81, -967, -77
-947, -1197, -250, 1072, -349, -724, 784, 83, 354, 133, -904, -37
-1017, -1206, -189, 1111, -414, -698, 794, 49, 328, 102, -949, -55
-933, -1183, -250, 1058, -342, -717, 739, 60, 302, 53, -1021, -92
-795, -1121, -326, 958, -235, -724, 734, 123, 350, 77, -995, -105
-819, -1122, -303, 970, -258, -713, 745, 138, 375, 109, -954, -70
-915, -1189, -274, 1052, -321, -732, 758, 111, 359, 49, -991, -74
-950, -1242, -292, 1096, -329, -767, 779, 93, 353, 19, -1038, -115
-914, -1244, -330, 1079, -292, -787, 759, 123, 363, 56, -1033, -143
-929, -1255, -326, 1092, -302, -791, 812, 153, 411, 86, -1018, -126
-1014, -1262, -248, 1138, -383, -755, 847, 115, 413, 73, -1042, -94
-831, -1218, -387, 1024, -222, -803, 761, 215, 420, 53, -1060, -103
-766, -1238, -472, 1002, -147, -855, 763, 285, 458, 35, -1093, -146
-876, -1273, -397, 1074, -240, -835, 820, 281, 467, -20, -1138, -149
-878, -1308, -430, 1093, -224, -869, 848, 317, 492, 2, -1130, -156
-736, -1365, -629, 1050, -54, -997, 828, 391, 536, 76, -1117, -196
-593, -1295, -702, 944, 54, -999, 865, 458, 592, 81, -1131, -210
-807, -1364, -557, 1085, -125, -961, 998, 466, 635, 74, -1156, -207
-908, -1491, -583, 1199, -163, -1037, 927, 473, 581, -13, -1231, -244
-628, -1503, -875, 1065, 123, -1189, 814, 551, 572, -90, -1329, -293
-633, -1550, -917, 1091, 142, -1234, 864, 553, 576, -123, -1408, -320
-744, -1557, -813, 1150, 34, -1185, 921, 534, 575, -133, -1395, -348
-721, -1509, -788, 1115, 33, -1149, 930, 497, 564, -136, -1347, -340
-744, -1503, -759, 1123, 7, -1131, 888, 434, 540, -116, -1335, -310
-867, -1479, -612, 1173, -128, -1046, 907, 398, 550, -72, -1274, -243
-931, -1354, -423, 1142, -254, -889, 891, 280, 512, -59, -1202, -155
-749, -1233, -484, 991, -133, -859, 760, 195, 440, -39, -1185, -150
-758, -1214, -456, 986, -151, -835, 764, 186, 444, 39, -1109, -133
-844, -1138, -294, 991, -275, -716, 752, 104, 419, 62, -1016, -82
-877, -1084, -207, 980, -335, -646, 712, 11, 373, 59, -998, -16
-909, -1097, -188, 1003, -361, -643, 714, -12, 343, 24, -1032, 10
-933, -1093, -160, 1013, -387, -627, 713, -26, 336, 11, -1027, 25
-937, -1083, -146, 1010, -396, -615, 700, -54, 319, 20, -991, 44
-983, -1094, -111, 1038, -436, -603, 714, -56, 322, 41, -968, 12
-1000, -1142, -142, 1071, -429, -642, 744, -65, 335, 97, -953, -27
-993, -1102, -109, 1047, -442, -606, 733, -125, 304, 72, -958, 21
-961, -1058, -97, 1009, -432, -578, 686, -67, 295, 41, -986, 62
-1216, -1129, 87, 1172, -652, -521, 812, -15, 367, 109, -952, 107
-1135, -1094, 41, 1114, -588, -527, 792, -69, 341, 76, -976, 62
-970, -1064, -94, 1017, -438, -579, 725, -64, 335, 54, -978, 10
-955, -1123, -168, 1039, -394, -646, 699, -43, 329, 53, -1000, 3
-799, -1091, -292, 945, -254, -692, 656, 47, 331, 7, -1072, -17
-968, -1121, -153, 1044, -408, -637, 736, 28, 361, 40, -1029, 10
-1011, -1115, -104, 1063, -454, -610, 763, -1, 362, 82, -985, 22
-916, -1096, -180, 1006, -368, -638, 728, 22, 355, 68, -1024, -14
-869, -1108, -239, 988, -315, -674, 700, 11, 340, 44, -1052, -33
-901, -1126, -225, 1013, -338, -676, 735, 19, 358, 54, -1038, -26
-956, -1143, -187, 1049, -385, -665, 746, 11, 356, 42, -1046, -24
-950, -1134, -184, 1042, -383, -659, 744, 2, 356, 50, -1052, -5
-883, -1109, -226, 996, -329, -668, 714, -24, 324, 14, -1080, -28
-936, -1094, -158, 1015, -389, -626, 725, -27, 334, 22, -1062, -13
-1075, -1138, -63, 1106, -506, -601, 826, -53, 363, 37, -1063, 21
-984, -1110, -126, 1047, -429, -618, 774, -33, 344, 31, -1078, 18
-934, -1042, -108, 988, -413, -575, 763, 94, 413, 110, -1006, 38
-1113, -1061, 52, 1087, -583, -505, 869, 86, 455, 167, -937, 69
-877, -1012, -135, 944, -371, -574, 775, 13, 387, 96, -998, 30
-638, -927, -289, 782, -175, -608, 683, 73, 400, 84, -1048, 34
-821, -933, -112, 877, -355, -523, 723, 72, 418, 68, -1068, 94
-778, -916, -138, 847, -320, -527, 674, 48, 406, 111, -987, 83
-615, -835, -220, 725, -198, -528, 578, 10, 378, 166, -915, 97
-785, -849, -64, 817, -361, -457, 596, -36, 353, 127, -947, 143
-842, -885, -43, 863, -400, -464, 615, -53, 332, 73, -959, 105
-878, -943, -65, 910, -407, -504, 628, -45, 331, 68, -937, 81
-991, -1017, -26, 1004, -483, -522, 725, -72, 354, 90, -947, 87
-1007, -1064, -57, 1035, -475, -561, 713, -92, 297, 30, -1037, 47
-876, -1129, -253, 1002, -312, -691, 611, -5, 255, -37, -1121, -28
-844, -1156, -312, 1000, -266, -734, 622, -13, 246, -62, -1159, -38
-918, -1138, -220, 1028, -349, -679, 667, 9, 267, -20, -1121, -16
-902, -1176, -274, 1039, -314, -725, 677, 5, 261, -18, -1094, -25
-893, -1185, -292, 1039, -301, -739, 691, -23, 250, -24, -1104, -34
-1005, -1215, -210, 1110, -398, -713, 722, -18, 269, -24, -1115, -29
-1340, -1282, 58, 1311, -699, -612, 859, -26, 337, 28, -1060, 50
-1206, -1302, -96, 1254, -555, -699, 798, -164, 240, -53, -1128, -11
-639, -1162, -523, 900, -58, -843, 539, -62, 153, -157, -1227, -94
-761, -1254, -493, 1007, -134, -874, 642, 60, 228, -145, -1262, -131
-884, -1580, -696, 1232, -94, -1138, 796, 108, 247, -215, -1414, -319
-656, -1658, -1002, 1157, 173, -1330, 830, 435, 504, -61, -1441, -396
-84, -1018, -934, 551, 425, -976, 556, 729, 1023, 695, -879, -7
367, -54, -421, -156, 394, -237, -28, 503, 1271, 1562, 55, 718
48, 625, 577, -336, -264, 601, -280, -74, 958, 1608, 571, 1315
-1091, 774, 1865, 158, -1478, 1319, -97, -1169, -99, 689, 401, 1514
-1810, 322, 2132, 744, -1971, 1227, 137, -1789, -910, -212, -186, 1212
-1607, -45, 1562, 826, -1585, 758, 231, -1380, -692, -297, -562, 835
-1257, -281, 976, 769, -1117, 347, 348, -785, -218, -114, -730, 556
-1079, -666, 413, 872, -746, -127, 549, -388, 60, -70, -940, 268
-990, -1014, -24, 1002, -483, -519, 717, -170, 191, -102, -1133, 39
-961, -1148, -187, 1054, -387, -668, 746, -93, 224, -144, -1221, -50
-1007, -1187, -180, 1097, -414, -684, 758, -62, 242, -142, -1230, -58
-1004, -1230, -226, 1117, -389, -728, 765, -51, 257, -128, -1232, -69
-997, -1273, -276, 1135, -361, -775, 759, -15, 279, -118, -1238, -95
-1222, -1285, -63, 1253, -580, -674, 858, 9, 331, -69, -1185, -10
-1221, -1281, -60, 1251, -581, -671, 863, 9, 331, -63, -1174, -5
-863, -1273, -410, 1068, -227, -842, 742, -4, 275, -133, -1264, -140
-805, -1232, -427, 1018, -189, -830, 722, 22, 291, -127, -1267, -121
-944, -1222, -278, 1083, -333, -750, 774, 83, 342, -90, -1230, -52
-965, -1271, -306, 1118, -330, -789, 788, 96, 332, -102, -1242, -79
-796, -1302, -506, 1049, -145, -904, 747, 89, 319, -142, -1308, -159
-871, -1261, -390, 1066, -241, -826, 790, 114, 363, -101, -1275, -104
-871, -1259, -388, 1065, -242, -824, 770, 144, 346, -127, -1282, -111
-877, -1243, -366, 1060, -256, -805, 767, 166, 370, -99, -1273, -132
-887, -1237, -350, 1062, -269, -794, 794, 159, 385, -86, -1268, -151
-844, -1299, -455, 1071, -195, -877, 810, 179, 396, -91, -1277, -169
-846, -1315, -469, 1080, -189, -892, 821, 212, 425, -89, -1286, -165
-871, -1313, -442, 1092, -215, -878, 836, 241, 446, -102, -1307, -184
-829, -1309, -480, 1069, -175, -895, 838, 272, 450, -132, -1347, -204
-813, -1328, -515, 1070, -149, -922, 864, 327, 487, -103, -1358, -213
-832, -1351, -519, 1091, -157, -935, 891, 381, 527, -101, -1382, -242
-823, -1407, -584, 1115, -120, -996, 915, 442, 555, -118, -1417, -307
-794, -1481, -687, 1137, -54, -1084, 934, 482, 564, -170, -1464, -332
-810, -1506, -696, 1158, -57, -1101, 954, 504, 568, -204, -1509, -303
-779, -1492, -713, 1135, -33, -1103, 959, 537, 588, -197, -1512, -319
-753, -1540, -787, 1146, 17, -1164, 963, 557, 588, -222, -1537, -405
-757, -1561, -804, 1159, 23, -1183, 970, 551, 576, -260, -1583, -421
-759, -1527, -768, 1143, 4, -1148, 958, 526, 563, -279, -1577, -374
-793, -1525, -732, 1159, -31, -1129, 952, 490, 561, -257, -1547, -345
-864, -1475, -611, 1169, -127, -1043, 943, 429, 559, -209, -1479, -293
-1148, -1362, -214, 1255, -467, -788, 974, 388, 588, -112, -1332, -125
-1125, -1329, -204, 1227, -461, -767, 908, 269, 519, -111, -1305, -104
-697, -1285, -588, 991, -55, -937, 754, 105, 375, -196, -1387, -206
-758, -1192, -434, 975, -162, -813, 734, 49, 353, -153, -1310, -104
-874, -1180, -306, 1027, -284, -743, 726, -12, 320, -171, -1296, -67
-910, -1140, -230, 1025, -340, -685, 726, -40, 307, -137, -1249, -49
-1253, -1132, 121, 1192, -687, -506, 828, 25, 402, 41, -1062, 51
-1124, -1178, -54, 1151, -535, -616, 768, -45, 336, -27, -1113, -23
-968, -1178, -210, 1073, -379, -694, 725, -63, 293, -94, -1182, -51
-1212, -1160, 52, 1186, -632, -554, 827, -14, 363, -20, -1104, 54
-830, -1152, -322, 991, -254, -737, 699, -103, 254, -162, -1247, -59
-783, -1100, -317, 941, -233, -709, 657, -84, 271, -124, -1232, -58
-1120, -999, 121, 1059, -621, -439, 735, 32, 437, 99, -1007, 142
-579, -964, -385, 771, -97, -675, 550, 84, 470, 183, -1000, 82
-6, -1165, -1159, 585, 576, -1162, 413, 375, 633, 285, -1103, -115
-16, -1696, -1680, 856, 832, -1688, 601, 852, 880, 119, -1461, -422
-116, -2544, -2428, 1330, 1156, -2486, 956, 1169, 778, -711, -2403, -1113
-615, -3325, -2710, 1970, 1047, -3018, 1392, 1075, 400, -1545, -3228, -1665
-1564, -3859, -2295, 2711, 365, -3077, 1769, 471, -210, -2192, -3610, -1820
-2209, -3677, -1468, 2943, -371, -2573, 1848, -140, -590, -2313, -3471, -1593
-2247, -2822, -575, 2534, -836, -1699, 1660, -404, -498, -1768, -2798, -1099
-2038, -2042, -4, 2040, -1017, -1023, 1599, -234, -60, -1065, -2128, -655
-1772, -1763, 9, 1767, -891, -877, 1707, 216, 494, -558, -1801, -486
-1585, -1902, -317, 1743, -634, -1110, 1778, 491, 666, -475, -1787, -515
-1526, -2001, -475, 1763, -526, -1238, 1792, 472, 486, -575, -1788, -523
-1551, -1969, -418, 1760, -567, -1194, 1853, 302, 304, -562, -1730, -511
-1606, -1891, -285, 1748, -661, -1088, 1843, 80, 146, -551, -1677, -453
-1560, -1737, -177, 1648, -692, -957, 1644, -92, 33, -491, -1530, -332
-1372, -1482, -110, 1427, -631, -796, 1325, -130, 64, -344, -1374, -189
-1163, -1134, 29, 1148, -596, -553, 956, -61, 242, -92, -1149, -8
-1137, -938, 199, 1037, -668, -370, 742, -6, 363, 96, -961, 149
-858, -911, -53, 884, -403, -482, 607, -65, 289, 3, -1040, 75
-854, -918, -64, 886, -395, -491, 591, -36, 320, 29, -1032, 75
-996, -876, 120, 936, -558, -378, 585, -42, 345, 66, -957, 178
-788, -839, -51, 813, -369, -445, 470, -174, 234, -24, -1000, 170
-745, -797, -52, 771, -347, -425, 401, -119, 267, 102, -912, 185
-784, -794, -10, 789, -387, -402, 422, -17, 340, 184, -854, 183
-691, -785, -94, 738, -299, -440, 397, -82, 294, 153, -908, 142
-621, -705, -84, 663, -269, -395, 354, -102, 283, 177, -904, 151
-771, -618, 153, 694, -462, -233, 383, -50, 345, 268, -789, 241
-950, -584, 366, 767, -658, -109, 416, -11, 398, 332, -683, 324
-805, -525, 280, 665, -543, -123, 346, -70, 372, 311, -701, 330
-423, -400, 23, 411, -223, -189, 184, -130, 307, 289, -735, 298
-770, -335, 435, 552, -603, 50, 253, -4, 455, 512, -514, 479
-856, -302, 554, 579, -705, 126, 278, -10, 526, 616, -418, 563
-175, -174, 1, 174, -88, -87, 42, -94, 431, 550, -496, 467
-99, 4, 103, 47, -101, 53, -50, 10, 507, 680, -352, 562
-233, 151, 384, 41, -308, 267, -49, 51, 605, 810, -211, 672
-286, 179, 465, 53, -375, 322, -47, 65, 663, 885, -158, 750
-272, 219, 491, 26, -381, 355, -59, 86, 713, 986, -87, 844
-217, 241, 458, -12, -337, 349, -88, 106, 748, 997, -68, 843
-288, 141, 429, 73, -358, 285, -63, 121, 755, 940, -145, 777
-309, 30, 339, 139, -324, 184, 7, 155, 764, 947, -191, 708
-356, -54, 302, 205, -329, 124, 79, 171, 747, 878, -272, 574
-581, -190, 391, 385, -486, 100, 204, 199, 734, 754, -381, 475
-647, -386, 261, 516, -454, -63, 287, 203, 687, 622, -540, 375
-624, -554, 70, 589, -347, -242, 340, 185, 607, 443, -751, 251
-632, -642, -10, 637, -311, -326, 398, 164, 559, 342, -848, 152
-376, -758, -382, 567, 3, -570, 404, 140, 485, 166, -1022, 11
-428, -881, -453, 654, 12, -667, 477, 163, 462, 75, -1111, -30
-806, -1007, -201, 906, -303, -604, 644, 228, 511, 102, -1106, -14
-1537, -1137, 400, 1337, -969, -369, 901, 282, 603, 191, -993, 105
-1017, -1178, -161, 1097, -428, -670, 755, 74, 403, -5, -1179, -103
-324, -1107, -783, 715, 229, -945, 528, 30, 290, -108, -1332, -275
-614, -1068, -454, 841, -80, -761, 629, 198, 399, -37, -1247, -165
-872, -1065, -193, 968, -340, -629, 710, 201, 418, -47, -1216, -135
-644, -1143, -499, 893, -73, -821, 636, 112, 337, -103, -1333, -258
-643, -1160, -517, 901, -63, -839, 648, 107, 336, -74, -1320, -231
-802, -1180, -378, 991, -212, -779, 695, 109, 347, -59, -1285, -189
-803, -1174, -371, 988, -216, -773, 678, 86, 325, -137, -1323, -185
-803, -1128, -325, 965, -239, -727, 679, 77, 314, -156, -1330, -177
-797, -1155, -358, 976, -220, -757, 697, 111, 359, -15, -1261, -185
-809, -1233, -424, 1021, -193, -829, 708, 123, 372, -11, -1274, -221
-836, -1220, -384, 1028, -226, -802, 705, 103, 357, -42, -1285, -212
-868, -1174, -306, 1021, -281, -740, 697, 75, 334, -50, -1273, -231
-857, -1169, -312, 1013, -273, -741, 690, 68, 320, -97, -1313, -285
-846, -1205, -359, 1025, -244, -782, 690, 72, 312, -148, -1372, -288
-842, -1218, -376, 1030, -233, -797, 676, 57, 300, -122, -1337, -239
-829, -1201, -372, 1015, -229, -787, 671, 52, 304, -94, -1290, -223
-832, -1234, -402, 1033, -215, -818, 679, 51, 288, -226, -1389, -247
-825, -1214, -389, 1019, -218, -802, 674, 57, 296, -197, -1396, -244
-823, -1123, -300, 973, -262, -712, 661, 43, 297, -130, -1344, -272
-845, -1152, -307, 998, -269, -730, 658, 21, 270, -215, -1375, -301
-841, -1216, -375, 1028, -233, -796, 655, 28, 276, -196, -1332, -245
-832, -1206, -374, 1019, -229, -790, 661, 41, 295, -189, -1363, -253
-828, -1212, -384, 1020, -222, -798, 670, 34, 284, -234, -1409, -302
-847, -1182, -335, 1014, -256, -759, 671, 50, 300, -210, -1342, -244
-999, -1184, -185, 1091, -407, -685, 715, 84, 339, -136, -1305, -201
-1401, -1238, 163, 1319, -782, -538, 855, 105, 393, -21, -1245, -129
-1165, -1189, -24, 1177, -571, -607, 773, 21, 328, -98, -1317, -226
-297, -1133, -836, 715, 269, -985, 476, -39, 173, -297, -1543, -469
-382, -1142, -760, 762, 189, -951, 518, 17, 199, -281, -1519, -385
-694, -1156, -462, 925, -116, -809, 615, 44, 250, -226, -1455, -297
-758, -1157, -399, 957, -180, -778, 641, 49, 276, -134, -1402, -288
-774, -1150, -376, 962, -199, -763, 656, 50, 281, -124, -1426, -305
-871, -1220, -349, 1045, -261, -785, 689, 53, 279, -237, -1504, -303
-957, -1287, -330, 1122, -314, -809, 719, 62, 290, -184, -1447, -244
-891, -1212, -321, 1051, -285, -767, 702, 60, 303, -65, -1372, -239
-869, -1149, -280, 1009, -295, -715, 685, 46, 292, -122, -1416, -277
-743, -1120, -377, 931, -183, -749, 618, 62, 273, -161, -1458, -314
-928, -1161, -233, 1044, -348, -697, 689, 139, 343, -96, -1419, -279
-1144, -1184, -40, 1164, -552, -612, 769, 166, 406, -17, -1324, -192
-720, -1145, -425, 932, -148, -785, 640, 23, 254, -162, -1461, -335
-583, -1190, -607, 886, 12, -899, 604, 6, 208, -264, -1602, -420
-689, -1216, -527, 952, -81, -872, 646, 88, 289, -163, -1497, -327
-732, -1120, -388, 926, -172, -754, 636, 100, 300, -133, -1398, -273
-805, -1088, -283, 946, -261, -686, 637, 57, 270, -162, -1422, -296
-813, -1164, -351, 988, -231, -758, 640, 65, 276, -216, -1521, -308
-804, -1196, -392, 1000, -206, -794, 658, 79, 278, -231, -1540, -297
-806, -1141, -335, 973, -236, -738, 661, 71, 285, -158, -1441, -292
-818, -1190, -372, 1004, -223, -781, 678, 75, 293, -175, -1460, -286
-828, -1207, -379, 1017, -225, -793, 674, 71, 279, -261, -1554, -290
-816, -1147, -331, 981, -243, -739, 644, 43, 250, -242, -1510, -322
-913, -1154, -241, 1033, -336, -698, 681, 71, 279, -238, -1473, -305
-1172, -1128, 44, 1150, -608, -542, 750, 150, 377, -129, -1366, -213
-885, -1139, -254, 1012, -316, -697, 675, 105, 308, -223, -1478, -282
-451, -1179, -728, 815, 138, -954, 556, 9, 181, -394, -1662, -436
-659, -1187, -528, 923, -66, -858, 611, 38, 225, -356, -1609, -365
-801, -1162, -361, 981, -220, -762, 650, 76, 277, -264, -1523, -255
-764, -1065, -301, 914, -232, -683, 648, 80, 284, -267, -1532, -272
-795, -1003, -208, 899, -294, -606, 629, 82, 291, -294, -1559, -316
-802, -1023, -221, 912, -291, -622, 647, 125, 339, -253, -1537, -297
-681, -1022, -341, 851, -170, -682, 627, 111, 327, -220, -1504, -258
-725, -1032, -307, 878, -209, -670, 608, 93, 298, -323, -1586, -258
-876, -1002, -126, 939, -375, -564, 619, 113, 332, -292, -1586, -218
-718, -928, -210, 823, -254, -569, 560, 77, 311, -192, -1497, -229
-530, -932, -402, 731, -64, -667, 498, 36, 265, -227, -1500, -239
-599, -934, -335, 766, -132, -635, 519, 45, 264, -285, -1561, -254
-921, -865, 56, 893, -489, -405, 599, 94, 330, -169, -1427, -159
-995, -833, 162, 914, -579, -336, 620, 82, 336, -132, -1407, -156
-652, -1026, -374, 839, -139, -700, 575, 51, 261, -338, -1661, -309
-587, -1110, -523, 848, -32, -817, 570, 66, 244, -370, -1707, -364
-635, -1040, -405, 837, -115, -723, 570, 30, 202, -403, -1707, -425
-655, -1087, -432, 871, -112, -760, 579, 56, 224, -372, -1706, -428
-580, -1155, -575, 867, -3, -865, 573, 58, 219, -345, -1717, -417
-643, -1115, -472, 879, -86, -794, 586, 17, 174, -347, -1737, -472
-931, -1028, -97, 979, -417, -563, 629, 53, 227, -268, -1644, -419
-1121, -1054, 67, 1087, -594, -494, 693, 113, 298, -253, -1621, -365
-645, -1086, -441, 865, -102, -764, 590, 38, 211, -359, -1748, -465
-584, -1080, -496, 832, -44, -788, 584, 18, 180, -392, -1773, -475
-642, -985, -343, 813, -150, -664, 586, 33, 188, -376, -1757, -461
-572, -1149, -577, 860, 2, -863, 612, 96, 201, -473, -1952, -632
-683, -1484, -801, 1083, 59, -1143, 752, 300, 344, -437, -2031, -733
-455, -1405, -950, 930, 247, -1178, 737, 653, 738, -63, -1843, -656
41, -509, -550, 234, 295, -529, 349, 691, 1153, 904, -1045, -145
245, 679, 434, -462, -94, 557, -177, 202, 1131, 1869, 154, 704
-270, 1421, 1691, -575, -980, 1556, -331, -461, 574, 1669, 598, 1164
-1287, 1125, 2412, 81, -1849, 1768, -20, -1089, -365, 333, -106, 966
-1264, 249, 1513, 507, -1388, 881, 187, -1241, -880, -728, -1183, 341
-735, -279, 456, 507, -596, 88, 186, -873, -626, -760, -1649, -119
-734, -600, 134, 667, -434, -233, 371, -376, -175, -570, -1736, -335
-768, -894, -126, 831, -321, -510, 591, -56, 107, -498, -1816, -491
-690, -1066, -376, 878, -157, -721, 662, 73, 207, -479, -1843, -554
-679, -1076, -397, 877, -141, -737, 649, 101, 230, -432, -1830, -558
-728, -1162, -434, 945, -147, -798, 694, 149, 278, -373, -1834, -578
-801, -1167, -366, 984, -218, -767, 730, 191, 326, -346, -1785, -563
-885, -1172, -287, 1028, -299, -730, 743, 204, 352, -356, -1776, -565
-766, -1178, -412, 972, -177, -795, 699, 168, 317, -375, -1785, -576
-612, -1171, -559, 891, -27, -865, 682, 169, 305, -399, -1828, -600
-766, -1227, -461, 996, -153, -844, 754, 223, 352, -414, -1853, -572
-666, -1167, -501, 916, -83, -834, 710, 199, 335, -433, -1853, -586
-602, -1185, -583, 893, -10, -884, 681, 198, 330, -448, -1854, -612
-1041, -1318, -277, 1179, -382, -798, 827, 306, 448, -322, -1758, -488
-986, -1350, -364, 1168, -311, -857, 798, 277, 412, -405, -1828, -533
-410, -1254, -844, 832, 217, -1049, 632, 178, 278, -608, -1995, -694
-486, -1280, -794, 883, 154, -1037, 683, 247, 342, -541, -1935, -662
-680, -1345, -665, 1012, -8, -1005, 754, 301, 407, -468, -1885, -647
-716, -1305, -589, 1010, -64, -947, 759, 315, 424, -454, -1878, -649
-726, -1284, -558, 1005, -84, -921, 766, 339, 446, -457, -1868, -645
-723, -1342, -619, 1032, -52, -981, 788, 378, 473, -478, -1878, -641
-727, -1338, -611, 1032, -58, -975, 791, 400, 491, -503, -1893, -677
-746, -1310, -564, 1028, -91, -937, 805, 431, 518, -505, -1907, -730
-897, -1358, -461, 1127, -218, -910, 870, 514, 587, -452, -1893, -670
-987, -1389, -402, 1188, -293, -896, 930, 579, 642, -457, -1905, -621
-793, -1373, -580, 1083, -107, -977, 865, 527, 568, -578, -2042, -758
-525, -1407, -882, 966, 178, -1145, 787, 505, 520, -656, -2172, -873
-483, -1485, -1002, 984, 259, -1244, 827, 577, 571, -586, -2165, -856
-621, -1503, -882, 1062, 130, -1193, 886, 625, 613, -512, -2144, -828
-678, -1537, -859, 1107, 90, -1198, 923, 648, 626, -502, -2196, -857
-790, -1559, -769, 1174, -11, -1164, 970, 677, 653, -463, -2176, -829
-917, -1533, -616, 1225, -151, -1075, 1003, 687, 669, -461, -2132, -803
-799, -1549, -750, 1174, -25, -1150, 969, 641, 625, -501, -2156, -846
-633, -1561, -928, 1097, 147, -1245, 892, 566, 555, -569, -2208, -876
-587, -1503, -916, 1045, 164, -1210, 852, 526, 535, -562, -2152, -827
-592, -1392, -800, 992, 104, -1096, 827, 483, 520, -496, -2049, -761
-802, -1336, -534, 1069, -134, -935, 852, 465, 535, -403, -1929, -670
-937, -1311, -374, 1124, -282, -843, 861, 446, 548, -318, -1810, -567
-619, -1222, -603, 920, -8, -913, 723, 323, 433, -375, -1841, -617
-604, -1169, -565, 886, -20, -867, 702, 295, 412, -357, -1807, -586
-725, -1223, -498, 974, -114, -861, 748, 312, 439, -298, -1741, -532
-763, -1290, -527, 1026, -118, -909, 762, 313, 440, -286, -1714, -499
-779, -1256, -477, 1017, -151, -867, 760, 308, 437, -288, -1696, -482
-800, -1320, -520, 1060, -140, -920, 773, 316, 440, -285, -1687, -486
-811, -1315, -504, 1063, -154, -910, 780, 313, 439, -257, -1652, -480
-799, -1246, -447, 1022, -176, -847, 762, 298, 430, -234, -1639, -474
-770, -1304, -534, 1037, -118, -919, 771, 327, 449, -246, -1669, -464
-812, -1431, -619, 1121, -97, -1025, 802, 351, 467, -258, -1668, -447
-894, -1410, -516, 1152, -189, -963, 802, 333, 460, -279, -1643, -419
-877, -1343, -466, 1110, -206, -905, 812, 343, 467, -278, -1644, -403
-839, -1389, -550, 1114, -145, -970, 824, 372, 491, -207, -1648, -416
-820, -1428, -608, 1124, -106, -1018, 816, 381, 500, -180, -1632, -437
-856, -1449, -593, 1152, -132, -1021, 817, 391, 500, -179, -1619, -437
-896, -1481, -585, 1188, -156, -1033, 830, 413, 524, -149, -1590, -420
-799, -1476, -677, 1137, -61, -1077, 810, 405, 515, -167, -1601, -431
-840, -1497, -657, 1168, -92, -1077, 817, 421, 527, -190, -1601, -410
-881, -1590, -709, 1235, -86, -1150, 833, 431, 522, -244, -1625, -420
-802, -1634, -832, 1218, 15, -1233, 818, 411, 495, -278, -1662, -467
-803, -1629, -826, 1216, 11, -1228, 816, 422, 511, -237, -1624, -456
-1049, -1637, -588, 1343, -231, -1113, 879, 471, 565, -209, -1542, -380
-963, -1568, -605, 1265, -179, -1087, 867, 450, 548, -251, -1558, -388
-614, -1508, -894, 1061, 140, -1201, 788, 393, 485, -303, -1633, -475
-647, -1532, -885, 1089, 119, -1209, 798, 412, 499, -304, -1627, -460
-781, -1591, -810, 1186, 14, -1201, 869, 464, 558, -245, -1593, -430
-805, -1583, -778, 1194, -14, -1181, 889, 487, 583, -208, -1581, -422
-824, -1572, -748, 1198, -38, -1160, 873, 469, 566, -207, -1583, -403
-843, -1549, -706, 1196, -69, -1128, 843, 446, 555, -201, -1554, -370
-794, -1461, -667, 1127, -64, -1064, 790, 426, 553, -185, -1500, -321
-755, -1398, -643, 1076, -56, -1021, 751, 409, 536, -171, -1462, -285
-770, -1411, -641, 1090, -65, -1026, 739, 398, 523, -173, -1462, -298
-817, -1475, -658, 1146, -80, -1067, 746, 382, 497, -212, -1499, -308
-809, -1464, -655, 1136, -77, -1060, 761, 395, 502, -208, -1494, -297
-812, -1471, -659, 1141, -77, -1065, 760, 400, 500, -223, -1493, -319
-872, -1590, -718, 1231, -77, -1154, 785, 390, 465, -271, -1542, -364
-924, -1712, -788, 1318, -68, -1250, 792, 364, 420, -322, -1611, -405
-851, -1685, -834, 1268, -9, -1260, 790, 363, 406, -343, -1623, -400
-830, -1671, -841, 1250, 5, -1256, 817, 384, 424, -315, -1598, -402
-909, -1728, -819, 1318, -45, -1274, 806, 367, 413, -336, -1617, -431
-903, -1736, -833, 1319, -35, -1285, 805, 356, 395, -395, -1658, -444
-891, -1725, -834, 1308, -29, -1280, 799, 355, 394, -392, -1642, -416
-931, -1762, -831, 1346, -50, -1297, 802, 354, 389, -373, -1636, -414
-932, -1732, -800, 1332, -66, -1266, 813, 366, 400, -327, -1623, -434
-897, -1655, -758, 1276, -70, -1207, 807, 373, 413, -282, -1578, -427
-899, -1772, -873, 1335, -13, -1323, 855, 413, 421, -350, -1663, -485
-920, -2093, -1173, 1506, 126, -1633, 968, 550, 476, -468, -1878, -656
-910, -2201, -1291, 1555, 190, -1746, 1050, 921, 828, -212, -1845, -681
-760, -1581, -821, 1170, 30, -1201, 851, 1169, 1355, 695, -1149, -235
-50, -356, -306, 203, 128, -331, 208, 721, 1381, 1685, -70, 491
-39, 567, 606, -264, -322, 586, -162, 33, 925, 1826, 583, 1063
-931, 599, 1530, 166, -1230, 1064, -19, -773, -64, 716, 231, 1123
-1469, -61, 1408, 765, -1439, 673, 277, -1106, -761, -452, -670, 688
-1417, -683, 734, 1050, -1076, 25, 442, -714, -535, -636, -1200, 230
-1116, -1081, 35, 1098, -576, -523, 552, -177, -54, -448, -1434, -60
-1021, -1431, -410, 1226, -306, -921, 750, 190, 257, -368, -1599, -252
-1041, -1678, -637, 1359, -202, -1158, 895, 373, 402, -360, -1664, -372
-985, -1741, -756, 1363, -115, -1249, 906, 443, 452, -338, -1643, -394
-973, -1719, -746, 1346, -114, -1233, 895, 457, 462, -316, -1642, -395
-980, -1756, -776, 1368, -102, -1266, 923, 485, 488, -305, -1664, -419
-972, -1822, -850, 1397, -61, -1336, 912, 493, 490, -307, -1665, -435
-969, -1781, -812, 1375, -79, -1297, 891, 484, 481, -312, -1660, -432
-1020, -1725, -705, 1372, -158, -1215, 918, 495, 501, -288, -1646, -422
-1048, -1782, -734, 1415, -157, -1258, 939, 512, 510, -316, -1681, -477
-941, -1740, -799, 1340, -71, -1270, 933, 542, 536, -296, -1658, -461
-957, -1705, -748, 1331, -105, -1227, 935, 551, 553, -248, -1601, -439
-988, -1759, -771, 1373, -109, -1265, 938, 547, 539, -290, -1653, -461
-1004, -1806, -802, 1405, -101, -1304, 922, 550, 534, -306, -1683, -449
-1023, -1792, -769, 1407, -127, -1281, 934, 574, 561, -273, -1653, -449
-1017, -1768, -751, 1392, -133, -1260, 959, 605, 589, -267, -1648, -432
-1024, -1793, -769, 1408, -128, -1281, 965, 623, 599, -271, -1676, -432
-1026, -1837, -811, 1431, -108, -1324, 952, 631, 597, -264, -1687, -460
-1031, -1823, -792, 1427, -120, -1308, 962, 658, 621, -260, -1661, -434
-1004, -1786, -782, 1395, -111, -1284, 980, 698, 655, -272, -1659, -414
-976, -1814, -838, 1395, -69, -1326, 983, 742, 686, -258, -1689, -445
-1004, -1883, -879, 1443, -63, -1381, 1003, 788, 721, -234, -1711, -481
-1024, -1923, -899, 1473, -63, -1411, 1030, 837, 756, -241, -1721, -489
-1000, -1956, -956, 1478, -22, -1456, 1064, 904, 804, -228, -1731, -476
-965, -2001, -1036, 1483, 35, -1519, 1099, 979, 865, -196, -1748, -477
-963, -2079, -1116, 1521, 76, -1598, 1127, 1033, 899, -215, -1789, -519
-945, -2088, -1143, 1516, 99, -1616, 1142, 1081, 931, -239, -1796, -540
-903, -2127, -1224, 1515, 160, -1676, 1153, 1122, 953, -235, -1816, -579
-896, -2194, -1298, 1545, 201, -1746, 1151, 1121, 929, -264, -1890, -599
-934, -2165, -1231, 1549, 148, -1698, 1160, 1116, 928, -260, -1888, -551
-934, -2104, -1170, 1519, 118, -1637, 1184, 1117, 943, -245, -1859, -521
-1002, -2167, -1165, 1584, 81, -1666, 1145, 1039, 881, -309, -1890, -545
-1023, -2154, -1131, 1588, 54, -1643, 1106, 957, 826, -289, -1853, -524
-1030, -2055, -1025, 1542, -3, -1540, 1075, 880, 790, -198, -1760, -456
-1038, -1959, -921, 1498, -59, -1440, 1042, 807, 756, -138, -1645, -357
-1059, -1895, -836, 1477, -112, -1366, 1015, 732, 707, -120, -1574, -301
-1091, -1815, -724, 1453, -184, -1270, 978, 659, 656, -93, -1506, -254
-1098, -1773, -675, 1435, -212, -1224, 952, 614, 629, -55, -1435, -216
-1111, -1770, -659, 1440, -226, -1215, 948, 591, 613, -33, -1400, -219
-1108, -1781, -673, 1444, -218, -1227, 924, 541, 549, -102, -1439, -190
-1123, -1770, -647, 1446, -238, -1209, 905, 508, 520, -114, -1429, -126
-1149, -1747, -598, 1448, -276, -1173, 928, 526, 553, -67, -1376, -102
-1184, -1772, -588, 1478, -298, -1180, 955, 533, 564, -54, -1370, -120
-1185, -1779, -594, 1482, -296, -1187, 947, 520, 545, -66, -1385, -145
-1215, -1838, -623, 1526, -296, -1231, 939, 509, 527, -90, -1411, -178
-1223, -1846, -623, 1534, -300, -1235, 962, 527, 544, -79, -1381, -149
-1185, -1788, -603, 1486, -291, -1196, 961, 546, 572, -27, -1335, -111
-1190, -1794, -604, 1492, -293, -1199, 935, 529, 556, -56, -1360, -137
-1219, -1809, -590, 1514, -315, -1200, 933, 518, 540, -105, -1380, -126
-1250, -1821, -571, 1535, -340, -1196, 971, 540, 566, -68, -1368, -126
-1239, -1879, -640, 1559, -300, -1260, 968, 548, 567, -26, -1375, -175
-1239, -1875, -636, 1557, -302, -1256, 964, 559, 581, 27, -1342, -171
-1224, -1819, -595, 1521, -315, -1207, 998, 579, 604, 26, -1334, -157
-1257, -1885, -628, 1571, -315, -1257, 989, 563, 576, -30, -1382, -193
-1313, -1925, -612, 1619, -351, -1269, 984, 569, 581, -30, -1364, -186
-1288, -1902, -614, 1595, -337, -1258, 965, 572, 586, -8, -1337, -163
-1212, -1857, -645, 1534, -284, -1251, 970, 576, 586, 4, -1317, -154
-1214, -1797, -583, 1505, -316, -1190, 973, 583, 599, 29, -1284, -129
-1246, -1793, -547, 1519, -350, -1170, 964, 580, 604, 45, -1274, -115
-1257, -1820, -563, 1538, -347, -1192, 1000, 592, 610, 29, -1282, -129
-1211, -1811, -600, 1511, -306, -1206, 992, 596, 613, 12, -1272, -115
-1230, -1836, -606, 1533, -312, -1221, 982, 590, 612, -10, -1268, -90
-1218, -1764, -546, 1491, -336, -1155, 1016, 609, 637, 10, -1250, -68
-1194, -1694, -500, 1444, -347, -1097, 1021, 630, 660, 88, -1205, -50
-1225, -1727, -502, 1476, -362, -1115, 1025, 640, 674, 134, -1173, -57
-1208, -1722, -514, 1465, -347, -1118, 991, 614, 660, 135, -1153, -43
-1179, -1632, -453, 1405, -363, -1043, 937, 584, 647, 103, -1130, 14
-1174, -1648, -474, 1411, -350, -1061, 901, 569, 630, 106, -1120, 26
-1134, -1642, -508, 1388, -313, -1075, 858, 550, 608, 135, -1106, 18
-1167, -1596, -429, 1381, -369, -1013, 867, 544, 606, 137, -1095, 18
-1206, -1637, -431, 1421, -388, -1034, 903, 559, 612, 140, -1105, 2
-1186, -1667, -481, 1426, -353, -1074, 904, 569, 613, 148, -1116, -12
-1199, -1731, -532, 1465, -334, -1132, 923, 569, 601, 134, -1139, -40
-1267, -1839, -572, 1553, -348, -1206, 957, 558, 570, 58, -1193, -78
-1277, -1884, -607, 1580, -335, -1246, 950, 532, 529, -17, -1235, -104
-1291, -1923, -632, 1607, -330, -1278, 941, 515, 503, -51, -1248, -125
-1308, -1956, -648, 1632, -330, -1302, 966, 532, 517, 1, -1236, -137
-1269, -1954, -685, 1611, -292, -1320, 976, 546, 528, 22, -1240, -136
-1299, -1955, -656, 1627, -322, -1306, 970, 531, 517, 29, -1236, -128
-1343, -1955, -612, 1649, -366, -1284, 965, 519, 503, 35, -1230, -139
-1316, -1905, -589, 1610, -364, -1247, 965, 528, 512, 32, -1220, -144
-1341, -1919, -578, 1630, -382, -1249, 970, 527, 514, 26, -1230, -162
-1390, -2056, -666, 1723, -362, -1361, 1009, 547, 506, -31, -1308, -226
-1386, -2312, -926, 1849, -230, -1619, 1090, 673, 558, -105, -1476, -368
-1231, -2399, -1168, 1815, -32, -1784, 1131, 1047, 900, 115, -1483, -419
-838, -1724, -886, 1281, 24, -1305, 924, 1301, 1442, 1011, -843, -39
-447, -600, -153, 523, -147, -377, 359, 954, 1592, 2126, 290, 719
-545, 332, 877, 106, -711, 604, -33, 322, 1218, 2375, 1029, 1368
-1347, 432, 1779, 457, -1563, 1105, 45, -631, 93, 1201, 715, 1452
-1963, -302, 1661, 1132, -1812, 679, 309, -1105, -771, -106, -206, 1035
-1831, -789, 1042, 1310, -1437, 126, 455, -670, -503, -252, -709, 648
-1537, -1129, 408, 1333, -973, -361, 611, -72, 39, -11, -928, 314
-1448, -1522, -74, 1485, -687, -798, 838, 295, 337, 29, -1139, 32
-1427, -1796, -369, 1611, -529, -1083, 975, 485, 472, 27, -1226, -110
-1413, -1924, -511, 1668, -451, -1218, 1006, 554, 512, 20, -1270, -177
-1355, -1975, -620, 1665, -368, -1298, 988, 548, 494, -10, -1333, -222
-1299, -1963, -664, 1631, -318, -1314, 984, 563, 510, 10, -1338, -210
-1334, -1945, -611, 1639, -362, -1278, 998, 580, 522, 33, -1306, -212
-1336, -1937, -601, 1636, -368, -1269, 985, 577, 516, 33, -1301, -243
-1296, -1938, -642, 1617, -327, -1290, 972, 583, 520, 27, -1311, -254
-1315, -1962, -647, 1638, -334, -1305, 982, 589, 520, 25, -1311, -253
-1317, -1949, -632, 1633, -343, -1291, 984, 599, 531, 22, -1292, -226
-1315, -1938, -623, 1626, -346, -1281, 1003, 624, 558, 25, -1277, -209
-1338, -2008, -670, 1673, -334, -1339, 1011, 627, 561, 3, -1300, -259
-1358, -2087, -729, 1722, -315, -1408, 1015, 633, 558, 30, -1316, -297
-1326, -2041, -715, 1683, -306, -1378, 1014, 649, 571, 88, -1294, -292
-1262, -2005, -743, 1633, -260, -1374, 1019, 679, 605, 110, -1275, -290
-1274, -2043, -769, 1658, -253, -1406, 1047, 713, 638, 111, -1281, -287
-1292, -2046, -754, 1669, -269, -1400, 1047, 724, 643, 98, -1290, -302
-1258, -2050, -792, 1654, -233, -1421, 1036, 739, 648, 86, -1308, -338
-1277, -2079, -802, 1678, -238, -1441, 1064, 781, 684, 101, -1303, -337
-1295, -2108, -813, 1701, -241, -1461, 1084, 824, 720, 117, -1316, -351
-1239, -2099, -860, 1669, -190, -1480, 1094, 870, 752, 118, -1340, -366
-1257, -2133, -876, 1695, -191, -1505, 1128, 930, 801, 127, -1348, -368
-1239, -2144, -905, 1691, -167, -1525, 1142, 978, 842, 149, -1359, -387
-1216, -2155, -939, 1685, -139, -1547, 1150, 1015, 875, 156, -1385, -422
-1234, -2208, -974, 1721, -130, -1591, 1175, 1048, 910, 154, -1419, -452
-1241, -2244, -1003, 1742, -119, -1624, 1204, 1077, 941, 144, -1445, -451
-1195, -2226, -1031, 1710, -82, -1629, 1205, 1088, 951, 128, -1462, -468
-1173, -2246, -1073, 1709, -50, -1660, 1218, 1091, 956, 121, -1489, -499
-1153, -2294, -1141, 1723, -6, -1718, 1227, 1077, 951, 99, -1515, -512
-1158, -2364, -1206, 1761, 24, -1785, 1171, 1008, 899, 53, -1554, -540
-1197, -2302, -1105, 1749, -46, -1704, 1129, 921, 848, 66, -1535, -508
-1178, -2080, -902, 1629, -138, -1491, 1099, 826, 807, 109, -1433, -391
-1218, -2057, -839, 1637, -190, -1448, 1022, 696, 716, 91, -1392, -350
-1189, -1929, -740, 1559, -225, -1335, 984, 604, 670, 155, -1290, -284
-1185, -1821, -636, 1503, -275, -1229, 963, 526, 635, 229, -1205, -244
-1271, -1853, -582, 1562, -345, -1218, 931, 432, 552, 202, -1201, -253
-1264, -1844, -580, 1554, -342, -1212, 887, 368, 493, 191, -1173, -234
-1238, -1812, -574, 1525, -332, -1193, 873, 336, 473, 212, -1133, -202
-1237, -1764, -527, 1500, -355, -1146, 855, 307, 450, 221, -1108, -207
-1248, -1750, -502, 1499, -373, -1126, 851, 295, 443, 233, -1088, -233
-1275, -1765, -490, 1520, -393, -1128, 844, 269, 422, 194, -1096, -214
-1273, -1766, -493, 1519, -390, -1130, 816, 234, 385, 131, -1099, -186
-1250, -1737, -487, 1493, -382, -1112, 826, 251, 403, 223, -1060, -186
-1259, -1742, -483, 1500, -388, -1113, 838, 254, 407, 256, -1055, -208
-1288, -1745, -457, 1516, -416, -1101, 834, 242, 400, 237, -1052, -210
-1297, -1716, -419, 1506, -439, -1068, 823, 240, 412, 267, -1029, -197
-1228, -1587, -359, 1407, -435, -973, 776, 275, 484, 413, -905, -103
-989, -1485, -496, 1237, -247, -991, 687, 453, 703, 741, -693, -14
-641, -1610, -969, 1125, 164, -1290, 628, 847, 1098, 1134, -592, -68
-450, -2068, -1618, 1259, 584, -1843, 725, 1281, 1364, 1020, -899, -330
-594, -2930, -2336, 1762, 871, -2633, 1049, 1476, 1117, -62, -1872, -926
-1039, -3844, -2805, 2441, 883, -3325, 1506, 1408, 654, -1234, -2920, -1545
-1663, -4493, -2830, 3078, 583, -3662, 1849, 945, 4, -2077, -3545, -1871
-2156, -4509, -2353, 3332, 98, -3431, 1906, 307, -546, -2346, -3577, -1796
-2293, -3717, -1424, 3005, -435, -2571, 1716, -96, -619, -1885, -2981, -1340
-2174, -2782, -608, 2478, -783, -1695, 1596, 6, -184, -1068, -2220, -856
-1951, -2366, -415, 2158, -768, -1391, 1640, 461, 472, -334, -1725, -617
-1808, -2420, -612, 2114, -598, -1516, 1727, 758, 750, -94, -1589, -593
-1766, -2415, -649, 2090, -559, -1532, 1801, 801, 660, -130, -1546, -572
-1752, -2310, -558, 2031, -597, -1434, 1827, 655, 478, -101, -1456, -528
-1798, -2325, -527, 2061, -636, -1426, 1823, 425, 292, -84, -1410, -525
-1773, -2225, -452, 1999, -661, -1339, 1679, 237, 157, -63, -1322, -449
-1595, -2006, -411, 1800, -592, -1209, 1356, 128, 129, 40, -1184, -338
-1360, -1653, -293, 1506, -534, -973, 953, 107, 252, 270, -966, -157
-1221, -1422, -201, 1321, -510, -812, 658, 85, 326, 420, -836, -37
-1179, -1413, -234, 1296, -473, -824, 555, 51, 302, 400, -832, -13
-1110, -1360, -250, 1235, -430, -805, 508, 47, 298, 414, -805, 34
-1037, -1204, -167, 1120, -435, -686, 492, 66, 335, 508, -738, 81
-1088, -1199, -111, 1143, -489, -655, 497, 59, 339, 532, -717, 65
-1103, -1192, -89, 1147, -507, -641, 485, 50, 340, 547, -701, 73
-1050, -1198, -148, 1124, -451, -673, 474, 56, 350, 577, -695, 69
-1131, -1261, -130, 1196, -501, -696, 490, 50, 353, 593, -688, 49
-1175, -1211, -36, 1193, -570, -624, 475, 43, 362, 634, -632, 87
-1114, -1122, -8, 1118, -553, -565, 442, 47, 389, 687, -580, 146
-1083, -1074, 9, 1078, -546, -533, 424, 51, 414, 742, -533, 171
-1070, -1014, 56, 1042, -563, -479, 385, 49, 429, 784, -478, 195
-1026, -902, 124, 964, -575, -389, 337, 48, 453, 836, -409, 249
-1000, -820, 180, 910, -590, -320, 282, 54, 489, 931, -315, 321
-937, -683, 254, 810, -596, -215, 267, 103, 582, 1102, -178, 414
-899, -577, 322, 738, -611, -128, 224, 131, 654, 1256, -46, 475
-876, -501, 375, 688, -626, -63, 161, 146, 709, 1385, 77, 521
-831, -369, 462, 600, -647, 46, 112, 176, 781, 1524, 194, 596
-765, -227, 538, 496, -652, 155, 58, 200, 839, 1614, 269, 633
-693, -122, 571, 407, -632, 224, 15, 233, 896, 1682, 339, 688
-677, -84, 593, 380, -635, 254, -24, 240, 917, 1733, 382, 744
-674, -112, 562, 393, -618, 225, -20, 247, 912, 1719, 342, 718
-663, -180, 483, 421, -573, 151, 10, 257, 888, 1627, 243, 631
-703, -329, 374, 516, -539, 22, 72, 265, 849, 1496, 115, 526
-776, -470, 306, 623, -541, -82, 156, 265, 800, 1334, -37, 426
-867, -662, 205, 764, -536, -229, 269, 275, 755, 1196, -195, 308
-931, -876, 55, 903, -493, -411, 339, 273, 695, 1049, -361, 177
-959, -1016, -57, 987, -451, -537, 398, 272, 648, 914, -498, 72
-1000, -1138, -138, 1069, -431, -638, 491, 267, 601, 798, -620, -19
-1102, -1291, -189, 1196, -457, -740, 564, 242, 541, 707, -722, -94
-1135, -1377, -242, 1256, -447, -810, 644, 247, 525, 661, -761, -132
-1157, -1491, -334, 1324, -412, -913, 684, 231, 486, 591, -819, -192
-1175, -1506, -331, 1340, -422, -919, 697, 186, 423, 534, -873, -215
-1153, -1458, -305, 1305, -424, -882, 699, 150, 376, 489, -907, -227
-1193, -1543, -350, 1368, -422, -947, 698, 130, 349, 472, -930, -271
-1180, -1508, -328, 1344, -426, -918, 693, 106, 333, 453, -935, -262
-1169, -1513, -344, 1341, -413, -929, 682, 84, 308, 415, -958, -250
-1202, -1655, -453, 1428, -375, -1054, 678, 81, 290, 412, -983, -313
-1128, -1590, -462, 1359, -333, -1026, 686, 112, 328, 481, -939, -357
-1106, -1486, -380, 1296, -363, -933, 695, 101, 336, 495, -899, -291
-1134, -1561, -427, 1347, -354, -994, 679, 49, 272, 423, -955, -243
-1183, -1587, -404, 1385, -390, -996, 673, 40, 261, 439, -961, -252
-1184, -1542, -358, 1363, -413, -950, 673, 42, 270, 459, -924, -252
-1123, -1586, -463, 1354, -330, -1025, 667, 56, 276, 471, -927, -306
-1085, -1636, -551, 1360, -267, -1094, 648, 56, 275, 464, -957, -351
-1170, -1582, -412, 1376, -379, -997, 649, 5, 232, 393, -956, -279
-1189, -1578, -389, 1383, -400, -984, 633, -33, 189, 354, -955, -264
-1116, -1579, -463, 1347, -327, -1021, 611, -30, 189, 384, -961, -305
-1029, -1508, -479, 1268, -275, -994, 600, -26, 198, 404, -949, -311
-1117, -1552, -435, 1334, -341, -994, 624, -26, 204, 414, -953, -320
-1265, -1595, -330, 1430, -468, -963, 667, -4, 222, 411, -930, -294
-1178, -1523, -345, 1350, -417, -934, 628, -26, 210, 412, -903, -276
-1094, -1523, -429, 1308, -333, -976, 595, -79, 169, 390, -932, -308
-1102, -1516, -414, 1309, -344, -965, 606, -72, 176, 417, -919, -307
-1126, -1570, -444, 1348, -341, -1007, 577, -85, 165, 418, -934, -324
-1133, -1602, -469, 1367, -332, -1036, 570, -94, 142, 371, -967, -328
-1132, -1572, -440, 1352, -346, -1006, 594, -85, 143, 348, -973, -319
-1146, -1576, -430, 1361, -358, -1003, 581, -97, 138, 358, -970, -325
-1122, -1548, -426, 1335, -348, -987, 562, -105, 132, 368, -961, -327
-1123, -1522, -399, 1322, -362, -961, 572, -107, 127, 360, -959, -321
-1175, -1598, -423, 1386, -376, -1011, 574, -121, 108, 329, -990, -349
-1188, -1576, -388, 1382, -400, -982, 583, -112, 119, 333, -968, -332
-1137, -1514, -377, 1325, -380, -946, 584, -105, 131, 369, -926, -309
-1144, -1543, -399, 1343, -373, -971, 587, -100, 141, 401, -922, -331
-1153, -1558, -405, 1355, -374, -982, 575, -109, 133, 400, -930, -357
-1115, -1491, -376, 1303, -370, -934, 527, -152, 88, 357, -947, -365
-1157, -1500, -343, 1328, -407, -922, 530, -165, 72, 343, -949, -366
-1198, -1530, -332, 1364, -433, -931, 550, -156, 85, 351, -940, -372
-1149, -1529, -380, 1339, -385, -955, 529, -163, 77, 350, -941, -379
-1111, -1513, -402, 1312, -355, -958, 521, -158, 81, 388, -913, -357
-1137, -1520, -383, 1328, -377, -952, 552, -136, 111, 444, -894, -362
-1178, -1505, -327, 1341, -426, -916, 541, -161, 85, 392, -922, -373
-1157, -1482, -325, 1319, -416, -904, 495, -191, 45, 346, -932, -374
-1142, -1504, -362, 1323, -390, -933, 512, -179, 61, 365, -925, -382
-1156, -1479, -323, 1317, -417, -901, 550, -162, 77, 383, -927, -383
-1162, -1475, -313, 1318, -425, -894, 537, -171, 63, 392, -938, -396
-1151, -1504, -353, 1327, -399, -929, 501, -207, 29, 372, -958, -420
-1113, -1475, -362, 1294, -376, -919, 501, -201, 45, 408, -931, -378
-1141, -1474, -333, 1307, -404, -904, 517, -186, 62, 431, -909, -339
-1139, -1444, -305, 1291, -417, -875, 484, -221, 24, 406, -935, -349
-1134, -1460, -326, 1297, -404, -893, 482, -232, 8, 382, -964, -372
-1138, -1437, -299, 1287, -420, -868, 497, -227, 18, 384, -950, -376
-1121, -1412, -291, 1266, -415, -852, 471, -240, 3, 384, -943, -393
-1111, -1382, -271, 1246, -420, -827, 468, -240, -2, 357, -940, -402
-1152, -1451, -299, 1301, -427, -875, 454, -257, -15, 382, -950, -431
-1079, -1457, -378, 1268, -351, -918, 447, -257, -16, 438, -957, -472
-1031, -1361, -330, 1196, -351, -846, 490, -218, 36, 492, -899, -422
-997, -1329, -332, 1163, -333, -831, 478, -227, 36, 481, -905, -405
-1004, -1328, -324, 1166, -340, -826, 462, -247, 5, 433, -962, -448
-1033, -1203, -170, 1118, -432, -687, 467, -225, 33, 462, -910, -413
-955, -1104, -149, 1029, -403, -627, 450, -182, 88, 541, -825, -376
-943, -1233, -290, 1088, -327, -762, 380, -233, 43, 520, -888, -480
-998, -1203, -205, 1100, -397, -704, 326, -295, -3, 499, -898, -481
-895, -1039, -144, 967, -376, -592, 287, -307, -9, 502, -841, -386
-829, -1073, -244, 951, -293, -659, 272, -305, -19, 503, -844, -378
-854, -1120, -266, 987, -294, -693, 304, -297, -11, 554, -837, -414
-881, -1187, -306, 1034, -288, -747, 296, -323, -36, 541, -835, -439
-871, -1248, -377, 1059, -247, -813, 304, -332, -54, 503, -856, -479
-950, -1306, -356, 1128, -297, -831, 355, -316, -53, 496, -875, -508
-960, -1340, -380, 1150, -290, -860, 368, -323, -72, 468, -895, -518
-886, -1393, -507, 1139, -190, -950, 342, -378, -130, 404, -959, -588
-858, -1440, -582, 1149, -138, -1011, 338, -395, -156, 380, -986, -604
-876, -1424, -548, 1150, -164, -986, 354, -374, -143, 391, -951, -546
-897, -1440, -543, 1168, -177, -992, 354, -395, -162, 370, -976, -584
-899, -1475, -576, 1187, -162, -1026, 353, -403, -168, 390, -983, -634
-879, -1475, -596, 1177, -142, -1036, 329, -412, -169, 402, -966, -622
-775, -1422, -647, 1098, -64, -1035, 297, -440, -196, 371, -970, -602
-735, -1394, -659, 1064, -38, -1027, 290, -438, -203, 364, -971, -590
-804, -1520, -716, 1162, -44, -1118, 344, -416, -204, 312, -1056, -675
-857, -1801, -944, 1329, 43, -1373, 437, -323, -199, 188, -1248, -845
-603, -1876, -1273, 1239, 335, -1575, 485, 100, 113, 376, -1267, -882
-105, -1363, -1258, 734, 576, -1311, 228, 556, 762, 1232, -715, -537
420, -258, -678, -81, 549, -468, -404, 444, 1192, 2350, 341, 254
325, 742, 417, -533, -46, 580, -764, -132, 980, 2660, 1104, 980
-637, 962, 1599, -162, -1118, 1280, -656, -1401, -239, 1678, 955, 1150
-1342, 374, 1716, 484, -1529, 1045, -403, -2273, -1368, 459, 197, 788
-1271, -176, 1095, 723, -1183, 459, -258, -1934, -1284, 177, -295, 372
-972, -481, 491, 726, -732, 5, -124, -1275, -767, 368, -504, 62
-841, -910, -69, 875, -386, -490, 105, -821, -448, 419, -738, -259
-755, -1244, -489, 999, -133, -867, 247, -592, -331, 348, -958, -524
-715, -1363, -648, 1039, -34, -1006, 278, -518, -294, 307, -1033, -600
-733, -1377, -644, 1055, -45, -1011, 323, -463, -248, 340, -999, -555
-727, -1425, -698, 1076, -15, -1062, 331, -432, -228, 358, -993, -560
-665, -1445, -780, 1055, 57, -1113, 293, -453, -243, 345, -1017, -614
-697, -1459, -762, 1078, 32, -1111, 329, -420, -213, 381, -1011, -642
-667, -1444, -777, 1055, 55, -1111, 332, -401, -194, 393, -995, -646
-629, -1508, -879, 1068, 125, -1194, 278, -444, -245, 357, -1042, -697
-638, -1507, -869, 1072, 115, -1188, 282, -438, -251, 364, -1056, -741
-642, -1347, -705, 994, 31, -1026, 347, -374, -164, 461, -956, -659
-708, -1374, -666, 1041, -21, -1020, 350, -375, -152, 480, -946, -651
-682, -1361, -679, 1021, -2, -1020, 317, -398, -187, 428, -983, -676
-679, -1340, -661, 1009, -9, -1001, 320, -391, -188, 410, -991, -657
-647, -1404, -757, 1025, 55, -1081, 294, -389, -212, 356, -1048, -700
-523, -1473, -950, 998, 213, -1212, 257, -381, -230, 333, -1090, -779
-621, -1440, -819, 1030, 99, -1130, 338, -327, -146, 439, -1003, -718
-762, -1363, -601, 1062, -81, -982, 369, -297, -108, 477, -962, -641
-715, -1331, -616, 1023, -50, -974, 339, -298, -135, 419, -1012, -675
-709, -1345, -636, 1027, -37, -991, 325, -290, -151, 376, -1052, -721
-695, -1377, -682, 1036, -7, -1030, 306, -260, -146, 375, -1059, -728
-612, -1332, -720, 972, 54, -1026, 344, -197, -89, 430, -1007, -671
-582, -1339, -757, 960, 87, -1048, 406, -135, -46, 446, -1016, -710
-632, -1450, -818, 1041, 93, -1134, 392, -118, -61, 391, -1106, -833
-666, -1443, -777, 1054, 55, -1110, 401, -116, -67, 354, -1132, -840
-668, -1417, -749, 1042, 40, -1083, 417, -103, -75, 316, -1134, -799
-666, -1491, -825, 1078, 79, -1158, 419, -77, -85, 270, -1172, -820
-590, -1478, -888, 1034, 149, -1183, 469, -4, -38, 289, -1163, -822
-582, -1515, -933, 1048, 175, -1224, 495, -20, -40, 290, -1158, -835
-697, -1556, -859, 1126, 81, -1208, 501, -41, -61, 268, -1169, -846
-690, -1498, -808, 1094, 59, -1153, 487, -64, -87, 239, -1180, -849
-676, -1480, -804, 1078, 64, -1142, 450, -124, -131, 211, -1182, -847
-655, -1485, -830, 1070, 87, -1158, 403, -201, -178, 193, -1182, -843
-604, -1399, -795, 1001, 95, -1097, 362, -247, -183, 253, -1134, -812
-632, -1258, -626, 945, -3, -942, 325, -265, -143, 383, -1018, -726
-649, -1161, -512, 905, -69, -837, 268, -344, -159, 472, -927, -676
-606, -1085, -479, 845, -64, -782, 220, -413, -184, 517, -872, -654
-581, -1023, -442, 802, -70, -733, 187, -449, -194, 549, -828, -619
-587, -1008, -421, 797, -83, -715, 157, -487, -218, 547, -814, -615
-613, -1011, -398, 812, -108, -705, 157, -502, -222, 556, -805, -625
-579, -1006, -427, 792, -76, -717, 153, -515, -231, 556, -799, -613
-694, -1067, -373, 880, -161, -720, 198, -467, -184, 609, -739, -544
-612, -1117, -505, 864, -54, -811, 172, -517, -215, 604, -737, -548
-575, -1093, -518, 834, -29, -806, 151, -555, -247, 579, -759, -569
-643, -1040, -397, 841, -123, -719, 165, -542, -232, 587, -747, -550
-629, -1042, -413, 835, -108, -728, 163, -531, -224, 594, -737, -538
-626, -1090, -464, 858, -81, -777, 159, -516, -211, 622, -740, -557
-588, -1062, -474, 825, -57, -768, 166, -500, -194, 609, -749, -559
-522, -1028, -506, 775, -8, -767, 166, -489, -186, 598, -727, -535
-535, -1068, -533, 801, -1, -801, 144, -488, -192, 632, -742, -567
-579, -1057, -478, 818, -51, -768, 139, -492, -196, 629, -774, -606
-529, -1018, -489, 773, -20, -754, 154, -468, -173, 641, -743, -581
-506, -967, -461, 736, -23, -714, 148, -472, -162, 685, -714, -551
-538, -1036, -498, 787, -20, -767, 144, -480, -177, 676, -750, -587
-544, -1074, -530, 809, -7, -802, 139, -482, -185, 665, -762, -594
-503, -1074, -571, 788, 34, -823, 117, -492, -204, 650, -761, -590
-456, -1031, -575, 743, 59, -803, 100, -504, -219, 630, -768, -597
-472, -1010, -538, 741, 33, -774, 131, -493, -201, 649, -766, -622
-522, -1063, -541, 792, 9, -802, 165, -480, -188, 660, -761, -636
-510, -971, -461, 740, -25, -716, 161, -481, -185, 662, -724, -574
-504, -908, -404, 706, -50, -656, 156, -481, -187, 657, -696, -522
-459, -871, -412, 665, -24, -642, 128, -474, -198, 637, -712, -554
-394, -806, -412, 600, 9, -609, 108, -512, -215, 630, -706, -569
-471, -788, -317, 629, -77, -553, 124, -514, -197, 658, -670, -547
-493, -817, -324, 655, -85, -571, 86, -489, -186, 661, -681, -614
-349, -740, -391, 544, 21, -566, -10, -557, -231, 652, -642, -548
-425, -737, -312, 581, -57, -525, -36, -582, -244, 670, -577, -424
-429, -721, -292, 575, -69, -507, -32, -567, -240, 667, -567, -416
-395, -743, -348, 569, -24, -546, -24, -565, -251, 633, -596, -455
-454, -829, -375, 641, -40, -602, 7, -546, -246, 628, -619, -484
-535, -877, -342, 706, -97, -610, 40, -557, -262, 600, -656, -526
-610, -945, -335, 777, -138, -640, 56, -586, -299, 566, -704, -584
-633, -990, -357, 811, -138, -674, 60, -597, -323, 537, -734, -605
-595, -998, -403, 796, -96, -701, 21, -648, -376, 466, -783, -638
-616, -1024, -408, 820, -104, -716, 34, -641, -372, 466, -787, -647
-623, -1035, -412, 829, -106, -724, 59, -631, -366, 468, -794, -661
-647, -1029, -382, 838, -133, -706, 60, -620, -361, 464, -796, -655
-638, -982, -344, 810, -147, -663, 42, -643, -378, 441, -792, -632
-644, -930, -286, 787, -179, -608, 37, -658, -389, 423, -784, -633
-686, -984, -298, 835, -194, -641, 36, -645, -382, 451, -779, -661
-696, -1054, -358, 875, -169, -706, 81, -622, -370, 449, -818, -694
-730, -1231, -501, 980, -115, -866, 168, -562, -379, 331, -968, -792
-704, -1482, -778, 1093, 37, -1130, 254, -270, -237, 277, -1136, -946
-274, -1145, -871, 709, 298, -1008, 126, 271, 320, 830, -860, -825
446, -167, -613, -139, 529, -390, -409, 524, 1002, 2009, 57, -237
736, 769, 33, -752, 352, 401, -925, 264, 1161, 2661, 936, 470
-79, 1245, 1324, -583, -701, 1284, -974, -926, 179, 2023, 1139, 912
-1062, 1027, 2089, 17, -1575, 1558, -777, -2304, -1268, 798, 633, 844
-1186, 565, 1751, 310, -1468, 1158, -625, -2300, -1525, 291, 64, 466
-1020, 222, 1242, 399, -1131, 732, -475, -1624, -1036, 396, -249, 89
-847, -51, 796, 449, -822, 372, -258, -1135, -684, 451, -512, -234
-745, -436, 309, 590, -527, -64, -48, -834, -505, 423, -722, -487
-731, -673, 58, 702, -395, -308, 17, -705, -441, 395, -821, -622
-719, -724, -5, 721, -357, -365, -5, -712, -460, 365, -870, -685
-625, -736, -111, 680, -257, -424, 16, -670, -431, 385, -868, -697
-606, -665, -59, 635, -274, -362, 13, -653, -415, 393, -848, -676
-649, -707, -58, 678, -296, -383, -7, -666, -438, 355, -894, -721
-660, -702, -42, 681, -309, -372, 23, -615, -391, 393, -872, -700
-617, -678, -61, 647, -278, -370, -1, -641, -410, 365, -891, -722
-590, -664, -74, 627, -258, -369, -22, -667, -437, 333, -914, -742
-582, -646, -64, 614, -259, -355, -7, -638, -413, 354, -903, -733
-628, -675, -47, 651, -291, -361, 14, -579, -367, 395, -864, -688
-602, -624, -22, 613, -290, -323, 9, -582, -363, 403, -832, -655
-590, -652, -62, 621, -264, -357, 0, -610, -391, 368, -870, -711
-581, -653, -72, 617, -255, -363, 14, -573, -364, 376, -869, -724
-548, -673, -125, 610, -212, -399, 35, -527, -328, 396, -844, -707
-550, -721, -171, 635, -190, -446, 12, -537, -345, 372, -870, -731
-491, -661, -170, 576, -161, -416, 16, -522, -339, 363, -880, -730
-585, -720, -135, 652, -225, -428, 61, -452, -289, 381, -870, -733
-596, -854, -258, 725, -169, -556, 85, -419, -266, 385, -879, -758
-499, -781, -282, 640, -109, -532, 104, -335, -208, 429, -850, -723
-496, -715, -219, 605, -139, -467, 110, -296, -188, 416, -871, -737
-508, -838, -330, 673, -89, -584, 114, -295, -216, 351, -939, -814
-482, -958, -476, 720, -3, -717, 168, -200, -162, 360, -965, -852
-440, -942, -502, 691, 31, -722, 198, -129, -117, 361, -964, -841
-457, -964, -507, 710, 25, -736, 213, -59, -90, 365, -963, -866
-484, -1063, -579, 773, 47, -821, 244, -29, -82, 352, -997, -923
-465, -1069, -604, 767, 69, -837, 252, -33, -99, 309, -1010, -912
-422, -1079, -657, 750, 117, -868, 247, -26, -108, 271, -1034, -915
-458, -1169, -711, 813, 126, -940, 259, -39, -123, 249, -1065, -938
-446, -1155, -709, 800, 131, -932, 261, -53, -118, 284, -1010, -890
-474, -1115, -641, 794, 83, -878, 227, -128, -152, 284, -993, -897
-552, -1029, -477, 790, -38, -753, 201, -189, -155, 328, -931, -853
-507, -927, -420, 717, -44, -674, 141, -302, -191, 385, -848, -775
-504, -875, -371, 689, -67, -623, 87, -396, -230, 443, -786, -745
-558, -804, -246, 681, -156, -525, 76, -444, -232, 515, -703, -680
-581, -764, -183, 672, -199, -474, 53, -522, -263, 541, -648, -630
-550, -759, -209, 654, -171, -484, 14, -586, -299, 556, -615, -602
-598, -703, -105, 650, -247, -404, 14, -612, -318, 552, -604, -590
-676, -739, -63, 707, -307, -401, 32, -610, -314, 554, -604, -586
-605, -733, -128, 669, -239, -431, 13, -628, -319, 564, -587, -573
-647, -733, -86, 690, -281, -410, 11, -652, -330, 566, -574, -568
-703, -757, -54, 730, -325, -406, 22, -646, -329, 569, -578, -581
-574, -707, -133, 640, -221, -420, 13, -654, -326, 596, -575, -590
-649, -712, -63, 680, -293, -388, 26, -645, -306, 610, -546, -566
-737, -726, 11, 731, -374, -358, 12, -647, -323, 573, -560, -585
-661, -693, -32, 677, -315, -363, 30, -637, -304, 596, -548, -590
-617, -700, -83, 658, -267, -392, 31, -628, -297, 591, -546, -580
-656, -686, -30, 671, -313, -358, 42, -601, -278, 594, -543, -572
-660, -720, -60, 690, -300, -390, 37, -594, -279, 585, -561, -605
-661, -732, -71, 696, -295, -402, 53, -573, -262, 595, -556, -606
-660, -706, -46, 683, -307, -376, 87, -528, -211, 642, -517, -573
-654, -740, -86, 697, -284, -413, 59, -546, -225, 638, -514, -573
-660, -757, -97, 708, -282, -427, 54, -548, -229, 635, -518, -584
-668, -789, -121, 728, -274, -455, 63, -558, -239, 615, -551, -626
-624, -774, -150, 699, -237, -462, 56, -570, -261, 595, -578, -641
-642, -806, -164, 724, -239, -485, 52, -565, -257, 625, -556, -636
-688, -768, -80, 728, -304, -424, 64, -523, -213, 675, -501, -582
-598, -613, -15, 605, -292, -314, 61, -568, -244, 627, -524, -591
-607, -563, 44, 585, -326, -260, 69, -562, -237, 622, -517, -574
-595, -614, -19, 604, -288, -317, 99, -521, -201, 655, -506, -573
-586, -642, -56, 614, -265, -349, 118, -521, -187, 695, -483, -558
-596, -557, 39, 576, -318, -259, 90, -527, -189, 698, -453, -514
-582, -485, 97, 533, -340, -194, 52, -538, -202, 669, -466, -522
-517, -444, 73, 480, -295, -186, -1, -556, -200, 683, -446, -511
-484, -451, 33, 467, -259, -209, -75, -584, -224, 682, -423, -473
-475, -468, 7, 471, -241, -231, -101, -596, -242, 681, -412, -446
-538, -464, 74, 501, -306, -195, -73, -589, -233, 696, -389, -434
-539, -548, -9, 543, -265, -279, -71, -601, -259, 647, -424, -470
-512, -563, -51, 537, -231, -307, -50, -571, -240, 656, -419, -462
-538, -575, -37, 556, -251, -306, -47, -605, -279, 621, -453, -498
-588, -701, -113, 644, -238, -407, -30, -670, -352, 544, -543, -601
-709, -789, -80, 749, -315, -435, -10, -683, -374, 511, -578, -648
-718, -752, -34, 735, -342, -393, 0, -662, -353, 521, -554, -636
-690, -799, -109, 744, -291, -454, 14, -625, -335, 520, -575, -672
-617, -785, -168, 701, -225, -477, -26, -650, -364, 487, -597, -664
-664, -786, -122, 725, -271, -454, -3, -657, -350, 517, -535, -586
-706, -857, -151, 781, -278, -504, 4, -671, -361, 519, -546, -611
-697, -801, -104, 749, -297, -453, 7, -663, -368, 500, -560, -602
-663, -728, -65, 695, -299, -397, -7, -672, -378, 478, -554, -567
-690, -844, -154, 767, -268, -499, -2, -672, -384, 460, -608, -665
-857, -1144, -287, 1000, -285, -716, 138, -517, -325, 406, -749, -868
-666, -1254, -588, 960, -39, -921, 228, -164, -115, 440, -858, -982
-109, -825, -716, 467, 303, -771, 33, 315, 438, 1025, -546, -757
545, 104, -441, -324, 493, -168, -565, 514, 1058, 2104, 330, -137
742, 993, 251, -867, 246, 622, -1020, 326, 1206, 2642, 1142, 538
-119, 1415, 1534, -648, -826, 1474, -1002, -936, 161, 1969, 1306, 937
-1116, 1049, 2165, 33, -1640, 1607, -797, -2310, -1261, 773, 762, 789
-1350, 522, 1872, 414, -1611, 1197, -588, -2136, -1366, 378, 247, 408
-1040, 285, 1325, 377, -1182, 805, -398, -1453, -836, 576, 42, 109
-802, -86, 716, 444, -759, 315, -223, -1077, -582, 539, -258, -245
-829, -590, 239, 709, -534, -176, -36, -794, -448, 432, -539, -538
-752, -705, 47, 728, -400, -329, 52, -645, -367, 431, -604, -612
-747, -721, 26, 734, -387, -348, 81, -606, -346, 435, -607, -644
-810, -799, 11, 804, -411, -394, 72, -585, -327, 454, -601, -668
-747, -711, 36, 729, -392, -338, 61, -592, -328, 450, -590, -622
-688, -710, -22, 699, -333, -366, 61, -620, -358, 400, -633, -636
-712, -769, -57, 740, -328, -413, 74, -584, -350, 380, -678, -700
-747, -744, 3, 745, -375, -371, 96, -536, -304, 427, -660, -680
-675, -670, 5, 672, -340, -333, 89, -553, -287, 482, -621, -632
-675, -685, -10, 680, -333, -348, 77, -525, -277, 459, -624, -637
-724, -733, -9, 728, -358, -371, 83, -506, -272, 431, -641, -663
-661, -745, -84, 703, -289, -415, 90, -519, -282, 419, -675, -690
-650, -758, -108, 704, -271, -433, 93, -506, -272, 414, -680, -686
-651, -807, -156, 729, -248, -482, 83, -495, -272, 418, -680, -711
-639, -804, -165, 721, -237, -485, 104, -459, -246, 431, -696, -765
-652, -765, -113, 708, -270, -439, 132, -415, -203, 437, -672, -735
-679, -820, -141, 749, -269, -481, 148, -390, -188, 426, -660, -672
-653, -812, -159, 732, -247, -486, 158, -346, -156, 453, -646, -638
-559, -915, -356, 737, -102, -636, 159, -320, -155, 391, -727, -784
-540, -1012, -472, 776, -34, -742, 177, -275, -142, 363, -758, -854
-625, -935, -310, 780, -158, -623, 210, -211, -85, 404, -667, -695
-656, -869, -213, 762, -222, -541, 218, -156, -41, 446, -625, -605
-541, -856, -315, 698, -113, -586, 252, -68, 1, 427, -663, -649
-598, -970, -372, 784, -113, -671, 288, 2, 37, 402, -706, -709
-588, -1074, -486, 831, -51, -780, 284, 0, 23, 360, -743, -748
-529, -1053, -524, 791, -3, -789, 296, 46, 32, 317, -768, -759
-555, -1024, -469, 789, -43, -747, 316, 88, 58, 321, -768, -787
-530, -1097, -567, 813, 18, -832, 312, 71, 31, 266, -820, -866
-528, -1174, -646, 851, 59, -910, 312, 53, 7, 225, -851, -878
-536, -1167, -631, 851, 47, -899, 283, 19, -6, 210, -844, -849
-542, -1091, -549, 816, 3, -820, 257, -34, -4, 265, -788, -813
-564, -984, -420, 774, -72, -702, 228, -122, -31, 282, -713, -760
-579, -893, -314, 736, -133, -604, 185, -223, -81, 290, -640, -695
-593, -833, -240, 713, -177, -537, 118, -325, -120, 355, -580, -656
-611, -749, -138, 680, -237, -444, 74, -414, -160, 385, -543, -645
-660, -711, -51, 685, -305, -381, 44, -485, -203, 394, -518, -615
-661, -688, -27, 674, -317, -358, 24, -519, -221, 388, -487, -555
-685, -672, 13, 678, -349, -330, 20, -547, -235, 407, -466, -546
-696, -660, 36, 678, -366, -312, 15, -571, -246, 431, -445, -546
-682, -687, -5, 684, -339, -346, 22, -560, -236, 409, -429, -547
-697, -711, -14, 704, -342, -363, 35, -549, -225, 388, -420, -567
-722, -670, 52, 696, -387, -309, 25, -575, -245, 367, -441, -543
-751, -653, 98, 702, -425, -278, 11, -605, -270, 360, -469, -491
-787, -680, 107, 733, -447, -287, 3, -626, -288, 352, -517, -527
-814, -668, 146, 741, -480, -261, 17, -619, -273, 354, -535, -529
-754, -571, 183, 662, -469, -194, 26, -585, -228, 389, -483, -472
-730, -534, 196, 632, -463, -169, 11, -587, -229, 390, -494, -504
-739, -508, 231, 623, -485, -139, 1, -559, -187, 459, -463, -490
-597, -395, 202, 496, -400, -97, -73, -429, -21, 697, -298, -382
-246, -379, -133, 312, -57, -256, -198, -105, 266, 997, -187, -375
135, -589, -724, 227, 429, -656, -237, 450, 662, 1148, -328, -585
218, -1154, -1372, 468, 795, -1263, -13, 941, 768, 605, -958, -1022
-197, -2126, -1929, 1161, 866, -2028, 481, 1027, 365, -567, -1972, -1614
-913, -3016, -2103, 1964, 595, -2560, 923, 426, -457, -1696, -2797, -2037
-1605, -3394, -1789, 2499, 92, -2592, 1128, -532, -1372, -2420, -3159, -2139
-1989, -2906, -917, 2447, -536, -1912, 1022, -1205, -1719, -2281, -2841, -1835
-1999, -1913, 86, 1956, -1043, -914, 859, -1332, -1445, -1534, -2107, -1309
-1814, -1172, 642, 1493, -1228, -265, 886, -919, -756, -658, -1446, -912
-1565, -1021, 544, 1293, -1055, -239, 975, -450, -215, -126, -1150, -801
-1416, -1130, 286, 1273, -851, -422, 1040, -276, -174, -76, -1104, -786
-1358, -1179, 179, 1268, -769, -500, 1064, -311, -298, -97, -1066, -742
-1397, -1121, 276, 1259, -837, -423, 1063, -497, -416, -62, -993, -695
-1436, -1005, 431, 1220, -934, -287, 935, -722, -545, -49, -929, -645
-1304, -822, 482, 1063, -893, -170, 640, -853, -618, 23, -841, -580
-1087, -567, 520, 827, -804, -24, 309, -822, -528, 174, -704, -469
-817, -206, 611, 511, -714, 202, -36, -704, -322, 375, -503, -295
-676, -50, 626, 363, -651, 288, -210, -638, -217, 512, -390, -225
-693, -121, 572, 407, -633, 225, -228, -625, -198, 586, -379, -280
-711, -93, 618, 402, -665, 262, -239, -620, -185, 623, -363, -292
-710, -55, 655, 382, -683, 300, -243, -644, -214, 564, -380, -292
-691, -49, 642, 370, -667, 296, -258, -660, -231, 516, -407, -312
-693, -15, 678, 354, -686, 331, -286, -674, -240, 565, -400, -333
-743, -43, 700, 393, -722, 328, -278, -658, -215, 630, -363, -332
-746, -68, 678, 407, -712, 305, -282, -636, -184, 652, -341, -318
-720, 36, 756, 342, -738, 396, -309, -635, -169, 698, -291, -263
-666, 139, 805, 263, -735, 472, -333, -631, -148, 737, -237, -225
-652, 157, 809, 247, -730, 483, -344, -615, -117, 763, -205, -222
-610, 223, 833, 193, -721, 528, -369, -586, -67, 835, -142, -178
-594, 283, 877, 155, -735, 580, -402, -571, -29, 911, -70, -121
