timestamp,ecg_measurement,qrs_detected
0.000000000000000000e+00,3.027277840269966269e+00,0.000000000000000000e+00
1.000000000000000000e+00,3.013217097862767258e+00,0.000000000000000000e+00
2.000000000000000000e+00,2.999859392575928041e+00,0.000000000000000000e+00
3.000000000000000000e+00,3.001968503937007871e+00,0.000000000000000000e+00
4.000000000000000000e+00,2.973847019122609847e+00,0.000000000000000000e+00
5.000000000000000000e+00,2.937992125984251857e+00,0.000000000000000000e+00
6.000000000000000000e+00,2.940101237345331686e+00,0.000000000000000000e+00
7.000000000000000000e+00,2.973143982002249608e+00,0.000000000000000000e+00
8.000000000000000000e+00,2.964707536557930290e+00,0.000000000000000000e+00
9.000000000000000000e+00,2.978065241844769506e+00,0.000000000000000000e+00
1.000000000000000000e+01,2.956974128233970767e+00,0.000000000000000000e+00
1.100000000000000000e+01,2.954865016872890937e+00,0.000000000000000000e+00
1.200000000000000000e+01,2.940101237345331686e+00,0.000000000000000000e+00
1.300000000000000000e+01,2.935883014623172027e+00,0.000000000000000000e+00
1.400000000000000000e+01,2.921119235095613220e+00,0.000000000000000000e+00
1.500000000000000000e+01,2.892997750281214753e+00,0.000000000000000000e+00
1.600000000000000000e+01,2.923931383577052845e+00,0.000000000000000000e+00
1.700000000000000000e+01,2.973143982002249608e+00,0.000000000000000000e+00
1.800000000000000000e+01,2.964707536557930290e+00,0.000000000000000000e+00
1.900000000000000000e+01,2.948537682789651448e+00,0.000000000000000000e+00
2.000000000000000000e+01,2.971737907761530018e+00,0.000000000000000000e+00
2.100000000000000000e+01,2.980174353205849336e+00,0.000000000000000000e+00
2.200000000000000000e+01,2.997750281214848211e+00,0.000000000000000000e+00
2.300000000000000000e+01,2.987907761529808859e+00,0.000000000000000000e+00
2.400000000000000000e+01,2.990719910011248484e+00,0.000000000000000000e+00
2.500000000000000000e+01,3.041338582677165281e+00,0.000000000000000000e+00
2.600000000000000000e+01,3.085629921259842590e+00,0.000000000000000000e+00
2.700000000000000000e+01,3.070866141732283339e+00,0.000000000000000000e+00
2.800000000000000000e+01,3.053290213723284463e+00,0.000000000000000000e+00
2.900000000000000000e+01,3.054696287964004497e+00,0.000000000000000000e+00
3.000000000000000000e+01,3.031496062992125928e+00,0.000000000000000000e+00
3.100000000000000000e+01,3.004780652418447495e+00,0.000000000000000000e+00
3.200000000000000000e+01,2.950646794150731278e+00,0.000000000000000000e+00
3.300000000000000000e+01,2.906355455568053969e+00,0.000000000000000000e+00
3.400000000000000000e+01,2.868391451068616593e+00,0.000000000000000000e+00
3.500000000000000000e+01,2.841676040494938160e+00,0.000000000000000000e+00
3.600000000000000000e+01,2.841676040494938160e+00,0.000000000000000000e+00
3.700000000000000000e+01,2.812148481439820102e+00,0.000000000000000000e+00
3.800000000000000000e+01,2.803008998875140545e+00,0.000000000000000000e+00
3.900000000000000000e+01,2.843082114735658195e+00,0.000000000000000000e+00
4.000000000000000000e+01,2.836051743532058467e+00,0.000000000000000000e+00
4.100000000000000000e+01,2.820584926884139421e+00,0.000000000000000000e+00
4.200000000000000000e+01,2.774887514060742522e+00,0.000000000000000000e+00
4.300000000000000000e+01,2.616704161979752641e+00,0.000000000000000000e+00
4.400000000000000000e+01,2.467660292463441873e+00,0.000000000000000000e+00
4.500000000000000000e+01,2.680680539932508655e+00,0.000000000000000000e+00
4.600000000000000000e+01,3.381608548931383407e+00,0.000000000000000000e+00
4.700000000000000000e+01,4.146512935883015061e+00,0.000000000000000000e+00
4.800000000000000000e+01,4.413667041619797615e+00,0.000000000000000000e+00
4.900000000000000000e+01,4.049493813273341125e+00,0.000000000000000000e+00
5.000000000000000000e+01,3.675478065241844838e+00,0.000000000000000000e+00
5.100000000000000000e+01,3.470191226096738024e+00,0.000000000000000000e+00
5.200000000000000000e+01,3.191085489313835843e+00,1.000000000000000000e+00
5.300000000000000000e+01,2.914791901012373287e+00,0.000000000000000000e+00
5.400000000000000000e+01,2.837457817772778501e+00,0.000000000000000000e+00
5.500000000000000000e+01,2.842379077615297955e+00,0.000000000000000000e+00
5.600000000000000000e+01,2.791057367829021363e+00,0.000000000000000000e+00
5.700000000000000000e+01,2.747469066366704293e+00,0.000000000000000000e+00
5.800000000000000000e+01,2.770669291338582862e+00,0.000000000000000000e+00
5.900000000000000000e+01,2.768560179977503033e+00,0.000000000000000000e+00
6.000000000000000000e+01,2.772075365579302453e+00,0.000000000000000000e+00
6.100000000000000000e+01,2.781917885264341805e+00,0.000000000000000000e+00
6.200000000000000000e+01,2.798087739032621091e+00,0.000000000000000000e+00
6.300000000000000000e+01,2.816366704161979762e+00,0.000000000000000000e+00
6.400000000000000000e+01,2.806524184476940409e+00,0.000000000000000000e+00
6.500000000000000000e+01,2.794572553430821227e+00,0.000000000000000000e+00
6.600000000000000000e+01,2.784026996625421635e+00,0.000000000000000000e+00
6.700000000000000000e+01,2.735517435320585111e+00,0.000000000000000000e+00
6.800000000000000000e+01,2.735517435320585111e+00,0.000000000000000000e+00
6.900000000000000000e+01,2.720050618672666065e+00,0.000000000000000000e+00
7.000000000000000000e+01,2.734111361079865077e+00,0.000000000000000000e+00
7.100000000000000000e+01,2.746062992125984259e+00,0.000000000000000000e+00
7.200000000000000000e+01,2.684898762654668314e+00,0.000000000000000000e+00
7.300000000000000000e+01,2.672244094488188892e+00,0.000000000000000000e+00
7.400000000000000000e+01,2.665916760404949404e+00,0.000000000000000000e+00
7.500000000000000000e+01,2.645528683914510903e+00,0.000000000000000000e+00
7.600000000000000000e+01,2.628655793025871823e+00,0.000000000000000000e+00
7.700000000000000000e+01,2.557649043869516525e+00,0.000000000000000000e+00
7.800000000000000000e+01,2.518278965129358671e+00,0.000000000000000000e+00
7.900000000000000000e+01,2.554133858267716661e+00,0.000000000000000000e+00
8.000000000000000000e+01,2.552727784026996627e+00,0.000000000000000000e+00
8.100000000000000000e+01,2.531636670416197887e+00,0.000000000000000000e+00
8.200000000000000000e+01,2.455005624296962896e+00,0.000000000000000000e+00
8.300000000000000000e+01,2.490157480314960647e+00,0.000000000000000000e+00
8.400000000000000000e+01,2.613892013498312572e+00,0.000000000000000000e+00
8.500000000000000000e+01,2.700365579302587360e+00,0.000000000000000000e+00
8.600000000000000000e+01,2.708098987626546883e+00,0.000000000000000000e+00
8.700000000000000000e+01,2.724971878515185519e+00,0.000000000000000000e+00
8.800000000000000000e+01,2.812851518560179898e+00,0.000000000000000000e+00
8.900000000000000000e+01,2.866282339707536764e+00,0.000000000000000000e+00
9.000000000000000000e+01,2.869094488188976388e+00,0.000000000000000000e+00
9.100000000000000000e+01,2.831833520809898808e+00,0.000000000000000000e+00
9.200000000000000000e+01,2.800196850393700920e+00,0.000000000000000000e+00
9.300000000000000000e+01,2.804415073115860579e+00,0.000000000000000000e+00
9.400000000000000000e+01,2.837457817772778501e+00,0.000000000000000000e+00
9.500000000000000000e+01,2.861361079865016865e+00,0.000000000000000000e+00
9.600000000000000000e+01,2.848003374578177649e+00,0.000000000000000000e+00
9.700000000000000000e+01,2.863470191226096695e+00,0.000000000000000000e+00
9.800000000000000000e+01,2.852221597300337308e+00,0.000000000000000000e+00
9.900000000000000000e+01,2.824803149606299080e+00,0.000000000000000000e+00
1.000000000000000000e+02,2.839566929133858331e+00,0.000000000000000000e+00
1.010000000000000000e+02,2.837457817772778501e+00,0.000000000000000000e+00
1.020000000000000000e+02,2.798087739032621091e+00,0.000000000000000000e+00
1.030000000000000000e+02,2.856439820022496967e+00,0.000000000000000000e+00
1.040000000000000000e+02,2.898622047244094446e+00,0.000000000000000000e+00
1.050000000000000000e+02,2.803712035995500784e+00,0.000000000000000000e+00
1.060000000000000000e+02,2.822694038245219250e+00,0.000000000000000000e+00
1.070000000000000000e+02,2.876124859392576116e+00,0.000000000000000000e+00
1.080000000000000000e+02,2.869797525309336184e+00,0.000000000000000000e+00
1.090000000000000000e+02,2.852221597300337308e+00,0.000000000000000000e+00
1.100000000000000000e+02,2.862767154105736900e+00,0.000000000000000000e+00
1.110000000000000000e+02,2.845894263217097819e+00,0.000000000000000000e+00
1.120000000000000000e+02,2.824803149606299080e+00,0.000000000000000000e+00
1.130000000000000000e+02,2.854330708661417138e+00,0.000000000000000000e+00
1.140000000000000000e+02,2.840973003374578365e+00,0.000000000000000000e+00
1.150000000000000000e+02,2.830427446569178773e+00,0.000000000000000000e+00
1.160000000000000000e+02,2.848003374578177649e+00,0.000000000000000000e+00
1.170000000000000000e+02,2.918307086614173151e+00,0.000000000000000000e+00
1.180000000000000000e+02,2.932367829021372163e+00,0.000000000000000000e+00
1.190000000000000000e+02,2.940804274465691925e+00,0.000000000000000000e+00
1.200000000000000000e+02,2.945022497187851584e+00,0.000000000000000000e+00
1.210000000000000000e+02,2.937289088863892061e+00,0.000000000000000000e+00
1.220000000000000000e+02,2.959083239595050596e+00,0.000000000000000000e+00
1.230000000000000000e+02,3.032199100112485723e+00,0.000000000000000000e+00
1.240000000000000000e+02,3.059617547806524396e+00,0.000000000000000000e+00
1.250000000000000000e+02,3.044853768278965145e+00,0.000000000000000000e+00
1.260000000000000000e+02,2.999156355455568246e+00,0.000000000000000000e+00
1.270000000000000000e+02,2.972440944881889813e+00,0.000000000000000000e+00
1.280000000000000000e+02,2.944319460067491345e+00,0.000000000000000000e+00
1.290000000000000000e+02,2.897919010123734651e+00,0.000000000000000000e+00
1.300000000000000000e+02,2.864173228346456490e+00,0.000000000000000000e+00
1.310000000000000000e+02,2.830427446569178773e+00,0.000000000000000000e+00
1.320000000000000000e+02,2.793166479190101192e+00,0.000000000000000000e+00
1.330000000000000000e+02,2.803008998875140545e+00,0.000000000000000000e+00
1.340000000000000000e+02,2.798087739032621091e+00,0.000000000000000000e+00
1.350000000000000000e+02,2.760123734533183271e+00,0.000000000000000000e+00
1.360000000000000000e+02,2.789651293588301328e+00,0.000000000000000000e+00
1.370000000000000000e+02,2.805118110236220375e+00,0.000000000000000000e+00
1.380000000000000000e+02,2.780511811023622215e+00,0.000000000000000000e+00
1.390000000000000000e+02,2.653965129358830222e+00,0.000000000000000000e+00
1.400000000000000000e+02,2.490860517435320443e+00,0.000000000000000000e+00
1.410000000000000000e+02,2.675056242969628961e+00,0.000000000000000000e+00
1.420000000000000000e+02,3.302868391451068586e+00,0.000000000000000000e+00
1.430000000000000000e+02,4.002390326209224192e+00,0.000000000000000000e+00
1.440000000000000000e+02,4.363048368953880818e+00,0.000000000000000000e+00
1.450000000000000000e+02,4.123312710911136492e+00,0.000000000000000000e+00
1.460000000000000000e+02,3.746484814398200136e+00,0.000000000000000000e+00
1.470000000000000000e+02,3.568616422947131550e+00,0.000000000000000000e+00
1.480000000000000000e+02,3.288104611923509779e+00,1.000000000000000000e+00
1.490000000000000000e+02,2.959083239595050596e+00,0.000000000000000000e+00
1.500000000000000000e+02,2.776996625421822351e+00,0.000000000000000000e+00
1.510000000000000000e+02,2.757311586051743646e+00,0.000000000000000000e+00
1.520000000000000000e+02,2.755905511811023612e+00,0.000000000000000000e+00
1.530000000000000000e+02,2.774184476940382282e+00,0.000000000000000000e+00
1.540000000000000000e+02,2.758014623172103441e+00,0.000000000000000000e+00
1.550000000000000000e+02,2.720753655793025860e+00,0.000000000000000000e+00
1.560000000000000000e+02,2.736220472440944906e+00,0.000000000000000000e+00
1.570000000000000000e+02,2.739735658042744770e+00,0.000000000000000000e+00
1.580000000000000000e+02,2.702474690663667189e+00,0.000000000000000000e+00
1.590000000000000000e+02,2.671541057367829097e+00,0.000000000000000000e+00
1.600000000000000000e+02,2.716535433070866201e+00,0.000000000000000000e+00
1.610000000000000000e+02,2.771372328458942658e+00,0.000000000000000000e+00
1.620000000000000000e+02,2.767857142857142794e+00,0.000000000000000000e+00
1.630000000000000000e+02,2.736923509561304702e+00,0.000000000000000000e+00
1.640000000000000000e+02,2.700365579302587360e+00,0.000000000000000000e+00
1.650000000000000000e+02,2.705989876265466609e+00,0.000000000000000000e+00
1.660000000000000000e+02,2.713723284589426132e+00,0.000000000000000000e+00
1.670000000000000000e+02,2.675759280089988756e+00,0.000000000000000000e+00
1.680000000000000000e+02,2.634983127109111312e+00,0.000000000000000000e+00
1.690000000000000000e+02,2.644122609673790869e+00,0.000000000000000000e+00
1.700000000000000000e+02,2.628655793025871823e+00,0.000000000000000000e+00
1.710000000000000000e+02,2.587879640044994378e+00,0.000000000000000000e+00
1.720000000000000000e+02,2.572412823397075332e+00,0.000000000000000000e+00
1.730000000000000000e+02,2.568194600674915673e+00,0.000000000000000000e+00
1.740000000000000000e+02,2.535151856017997751e+00,0.000000000000000000e+00
1.750000000000000000e+02,2.511248593925759387e+00,0.000000000000000000e+00
1.760000000000000000e+02,2.496484814398200136e+00,0.000000000000000000e+00
1.770000000000000000e+02,2.476799775028121431e+00,0.000000000000000000e+00
1.780000000000000000e+02,2.480314960629921295e+00,0.000000000000000000e+00
1.790000000000000000e+02,2.530230596175477853e+00,0.000000000000000000e+00
1.800000000000000000e+02,2.575224971878515401e+00,0.000000000000000000e+00
1.810000000000000000e+02,2.630061867266591857e+00,0.000000000000000000e+00
1.820000000000000000e+02,2.694038245219347427e+00,0.000000000000000000e+00
1.830000000000000000e+02,2.737626546681664941e+00,0.000000000000000000e+00
1.840000000000000000e+02,2.789651293588301328e+00,0.000000000000000000e+00
1.850000000000000000e+02,2.782620922384702045e+00,0.000000000000000000e+00
1.860000000000000000e+02,2.741844769403824600e+00,0.000000000000000000e+00
1.870000000000000000e+02,2.789651293588301328e+00,0.000000000000000000e+00
1.880000000000000000e+02,2.812148481439820102e+00,0.000000000000000000e+00
1.890000000000000000e+02,2.829021372328458739e+00,0.000000000000000000e+00
1.900000000000000000e+02,2.810742407199100068e+00,0.000000000000000000e+00
1.910000000000000000e+02,2.784730033745781874e+00,0.000000000000000000e+00
1.920000000000000000e+02,2.774887514060742522e+00,0.000000000000000000e+00
1.930000000000000000e+02,2.800899887514060715e+00,0.000000000000000000e+00
1.940000000000000000e+02,2.800196850393700920e+00,0.000000000000000000e+00
1.950000000000000000e+02,2.768560179977503033e+00,0.000000000000000000e+00
1.960000000000000000e+02,2.775590551181102317e+00,0.000000000000000000e+00
1.970000000000000000e+02,2.816366704161979762e+00,0.000000000000000000e+00
1.980000000000000000e+02,2.814257592800899932e+00,0.000000000000000000e+00
1.990000000000000000e+02,2.807930258717660443e+00,0.000000000000000000e+00
2.000000000000000000e+02,2.793166479190101192e+00,0.000000000000000000e+00
2.010000000000000000e+02,2.750984251968504157e+00,0.000000000000000000e+00
2.020000000000000000e+02,2.736220472440944906e+00,0.000000000000000000e+00
2.030000000000000000e+02,2.779808773903261976e+00,0.000000000000000000e+00
2.040000000000000000e+02,2.797384701912260851e+00,0.000000000000000000e+00
2.050000000000000000e+02,2.791760404949381158e+00,0.000000000000000000e+00
2.060000000000000000e+02,2.829021372328458739e+00,0.000000000000000000e+00
2.070000000000000000e+02,2.806524184476940409e+00,0.000000000000000000e+00
2.080000000000000000e+02,2.767857142857142794e+00,0.000000000000000000e+00
2.090000000000000000e+02,2.786136107986501909e+00,0.000000000000000000e+00
2.100000000000000000e+02,2.786839145106861704e+00,0.000000000000000000e+00
2.110000000000000000e+02,2.830427446569178773e+00,0.000000000000000000e+00
2.120000000000000000e+02,2.828318335208098944e+00,0.000000000000000000e+00
2.130000000000000000e+02,2.787542182227221499e+00,0.000000000000000000e+00
2.140000000000000000e+02,2.871203599550056218e+00,0.000000000000000000e+00
2.150000000000000000e+02,2.885967379077615469e+00,0.000000000000000000e+00
2.160000000000000000e+02,2.899325084364454241e+00,0.000000000000000000e+00
2.170000000000000000e+02,2.935883014623172027e+00,0.000000000000000000e+00
2.180000000000000000e+02,2.978768278965129301e+00,0.000000000000000000e+00
2.190000000000000000e+02,2.978768278965129301e+00,0.000000000000000000e+00
2.200000000000000000e+02,2.923228346456693050e+00,0.000000000000000000e+00
2.210000000000000000e+02,2.888779527559055094e+00,0.000000000000000000e+00
2.220000000000000000e+02,2.911979752530933663e+00,0.000000000000000000e+00
2.230000000000000000e+02,2.824100112485939285e+00,0.000000000000000000e+00
2.240000000000000000e+02,2.739735658042744770e+00,0.000000000000000000e+00
2.250000000000000000e+02,2.679977502812148416e+00,0.000000000000000000e+00
2.260000000000000000e+02,2.741141732283464361e+00,0.000000000000000000e+00
2.270000000000000000e+02,2.823397075365579489e+00,0.000000000000000000e+00
2.280000000000000000e+02,2.776996625421822351e+00,0.000000000000000000e+00
2.290000000000000000e+02,2.722159730033745895e+00,0.000000000000000000e+00
2.300000000000000000e+02,2.739032620922384531e+00,0.000000000000000000e+00
2.310000000000000000e+02,2.803008998875140545e+00,0.000000000000000000e+00
2.320000000000000000e+02,2.774887514060742522e+00,0.000000000000000000e+00
2.330000000000000000e+02,2.645528683914510903e+00,0.000000000000000000e+00
2.340000000000000000e+02,2.476799775028121431e+00,0.000000000000000000e+00
2.350000000000000000e+02,2.438835770528684055e+00,0.000000000000000000e+00
2.360000000000000000e+02,2.848706411698537888e+00,0.000000000000000000e+00
2.370000000000000000e+02,3.559476940382451993e+00,0.000000000000000000e+00
2.380000000000000000e+02,4.107845894263217446e+00,0.000000000000000000e+00
2.390000000000000000e+02,4.202755905511811108e+00,0.000000000000000000e+00
2.400000000000000000e+02,3.842800899887514277e+00,0.000000000000000000e+00
2.410000000000000000e+02,3.565804274465691925e+00,0.000000000000000000e+00
2.420000000000000000e+02,3.434336332958380034e+00,1.000000000000000000e+00
2.430000000000000000e+02,3.115860517435320443e+00,0.000000000000000000e+00
2.440000000000000000e+02,2.796681664791901056e+00,0.000000000000000000e+00
2.450000000000000000e+02,2.756608548931383407e+00,0.000000000000000000e+00
2.460000000000000000e+02,2.762935883014623339e+00,0.000000000000000000e+00
2.470000000000000000e+02,2.753796400449943782e+00,0.000000000000000000e+00
2.480000000000000000e+02,2.730596175478065213e+00,0.000000000000000000e+00
2.490000000000000000e+02,2.760123734533183271e+00,0.000000000000000000e+00
2.500000000000000000e+02,2.755905511811023612e+00,0.000000000000000000e+00
2.510000000000000000e+02,2.698959505061867326e+00,0.000000000000000000e+00
2.520000000000000000e+02,2.698256467941507530e+00,0.000000000000000000e+00
2.530000000000000000e+02,2.686304836895387904e+00,0.000000000000000000e+00
2.540000000000000000e+02,2.735517435320585111e+00,0.000000000000000000e+00
2.550000000000000000e+02,2.716535433070866201e+00,0.000000000000000000e+00
2.560000000000000000e+02,2.714426321709786372e+00,0.000000000000000000e+00
2.570000000000000000e+02,2.678571428571428381e+00,0.000000000000000000e+00
2.580000000000000000e+02,2.698959505061867326e+00,0.000000000000000000e+00
2.590000000000000000e+02,2.731299212598425008e+00,0.000000000000000000e+00
2.600000000000000000e+02,2.668728908886389029e+00,0.000000000000000000e+00
2.610000000000000000e+02,2.672947131608549132e+00,0.000000000000000000e+00
2.620000000000000000e+02,2.713020247469066337e+00,0.000000000000000000e+00
2.630000000000000000e+02,2.715129358830146167e+00,0.000000000000000000e+00
2.640000000000000000e+02,2.687007874015748143e+00,0.000000000000000000e+00
2.650000000000000000e+02,2.604752530933633459e+00,0.000000000000000000e+00
2.660000000000000000e+02,2.579443194600675060e+00,0.000000000000000000e+00
2.670000000000000000e+02,2.582255343082114685e+00,0.000000000000000000e+00
2.680000000000000000e+02,2.556946006749156286e+00,0.000000000000000000e+00
2.690000000000000000e+02,2.559055118110236116e+00,0.000000000000000000e+00
2.700000000000000000e+02,2.544994375703037104e+00,0.000000000000000000e+00
2.710000000000000000e+02,2.488751406074240613e+00,0.000000000000000000e+00
2.720000000000000000e+02,2.481017997750281090e+00,0.000000000000000000e+00
2.730000000000000000e+02,2.554133858267716661e+00,0.000000000000000000e+00
2.740000000000000000e+02,2.630061867266591857e+00,0.000000000000000000e+00
2.750000000000000000e+02,2.677868391451068586e+00,0.000000000000000000e+00
2.760000000000000000e+02,2.677868391451068586e+00,0.000000000000000000e+00
2.770000000000000000e+02,2.724268841394825724e+00,0.000000000000000000e+00
2.780000000000000000e+02,2.799493813273340681e+00,0.000000000000000000e+00
2.790000000000000000e+02,2.835348706411698672e+00,0.000000000000000000e+00
2.800000000000000000e+02,2.851518560179977513e+00,0.000000000000000000e+00
2.810000000000000000e+02,2.851518560179977513e+00,0.000000000000000000e+00
2.820000000000000000e+02,2.848706411698537888e+00,0.000000000000000000e+00
2.830000000000000000e+02,2.911276715410573868e+00,0.000000000000000000e+00
2.840000000000000000e+02,2.945022497187851584e+00,0.000000000000000000e+00
2.850000000000000000e+02,2.827615298087739149e+00,0.000000000000000000e+00
2.860000000000000000e+02,2.462035995500562624e+00,0.000000000000000000e+00
2.870000000000000000e+02,1.909448818897637734e+00,0.000000000000000000e+00
2.880000000000000000e+02,1.359673790776152913e+00,0.000000000000000000e+00
2.890000000000000000e+02,1.027840269966254327e+00,0.000000000000000000e+00
2.900000000000000000e+02,1.055961754780652351e+00,0.000000000000000000e+00
2.910000000000000000e+02,1.554415073115860579e+00,0.000000000000000000e+00
2.920000000000000000e+02,2.210348706411698672e+00,0.000000000000000000e+00
2.930000000000000000e+02,2.491563554555680682e+00,0.000000000000000000e+00
2.940000000000000000e+02,2.402277840269966269e+00,0.000000000000000000e+00
2.950000000000000000e+02,2.269403824521934787e+00,0.000000000000000000e+00
2.960000000000000000e+02,2.229330708661417138e+00,0.000000000000000000e+00
2.970000000000000000e+02,2.232142857142857206e+00,0.000000000000000000e+00
2.980000000000000000e+02,2.299634420697412640e+00,0.000000000000000000e+00
2.990000000000000000e+02,2.455005624296962896e+00,0.000000000000000000e+00
3.000000000000000000e+02,2.745359955005624464e+00,0.000000000000000000e+00
3.010000000000000000e+02,2.945725534308211380e+00,0.000000000000000000e+00
3.020000000000000000e+02,2.939398200224971891e+00,0.000000000000000000e+00
3.030000000000000000e+02,2.942210348706411516e+00,0.000000000000000000e+00
3.040000000000000000e+02,2.952052868391450868e+00,0.000000000000000000e+00
3.050000000000000000e+02,2.970331833520809983e+00,0.000000000000000000e+00
3.060000000000000000e+02,3.044853768278965145e+00,0.000000000000000000e+00
3.070000000000000000e+02,3.101799775028121431e+00,0.000000000000000000e+00
3.080000000000000000e+02,3.133436445444319318e+00,0.000000000000000000e+00
3.090000000000000000e+02,3.162964004499437376e+00,0.000000000000000000e+00
3.100000000000000000e+02,3.207958380202474480e+00,0.000000000000000000e+00
3.110000000000000000e+02,3.262795275590551380e+00,0.000000000000000000e+00
3.120000000000000000e+02,3.308492688413948279e+00,0.000000000000000000e+00
3.130000000000000000e+02,3.316226096737907802e+00,0.000000000000000000e+00
3.140000000000000000e+02,3.388638920134983135e+00,0.000000000000000000e+00
3.150000000000000000e+02,3.520106861642294582e+00,0.000000000000000000e+00
3.160000000000000000e+02,3.617829021372328313e+00,0.000000000000000000e+00
3.170000000000000000e+02,3.679696287964004497e+00,0.000000000000000000e+00
3.180000000000000000e+02,3.737345331833521023e+00,0.000000000000000000e+00
3.190000000000000000e+02,3.805539932508436252e+00,0.000000000000000000e+00
3.200000000000000000e+02,3.830146231721034855e+00,0.000000000000000000e+00
3.210000000000000000e+02,3.816788526434195639e+00,0.000000000000000000e+00
3.220000000000000000e+02,3.816788526434195639e+00,0.000000000000000000e+00
3.230000000000000000e+02,3.755624296962879693e+00,0.000000000000000000e+00
3.240000000000000000e+02,3.690241844769403645e+00,0.000000000000000000e+00
3.250000000000000000e+02,3.567913385826771755e+00,0.000000000000000000e+00
3.260000000000000000e+02,3.408323959505061840e+00,0.000000000000000000e+00
3.270000000000000000e+02,3.312007874015748143e+00,0.000000000000000000e+00
3.280000000000000000e+02,3.205146231721034855e+00,0.000000000000000000e+00
3.290000000000000000e+02,3.109533183352080954e+00,0.000000000000000000e+00
3.300000000000000000e+02,3.053993250843644702e+00,0.000000000000000000e+00
3.310000000000000000e+02,2.988610798650168654e+00,0.000000000000000000e+00
3.320000000000000000e+02,2.951349831271091073e+00,0.000000000000000000e+00
3.330000000000000000e+02,2.921119235095613220e+00,0.000000000000000000e+00
3.340000000000000000e+02,2.888779527559055094e+00,0.000000000000000000e+00
3.350000000000000000e+02,2.860658042744657070e+00,0.000000000000000000e+00
3.360000000000000000e+02,2.869797525309336184e+00,0.000000000000000000e+00
3.370000000000000000e+02,2.861361079865016865e+00,0.000000000000000000e+00
3.380000000000000000e+02,2.857845894263217001e+00,0.000000000000000000e+00
3.390000000000000000e+02,2.865579302587176524e+00,0.000000000000000000e+00
3.400000000000000000e+02,2.864876265466816729e+00,0.000000000000000000e+00
3.410000000000000000e+02,2.838863892013498091e+00,0.000000000000000000e+00
3.420000000000000000e+02,2.792463442069741397e+00,0.000000000000000000e+00
3.430000000000000000e+02,2.825506186726659319e+00,0.000000000000000000e+00
3.440000000000000000e+02,2.833942632170978637e+00,0.000000000000000000e+00
3.450000000000000000e+02,2.805118110236220375e+00,0.000000000000000000e+00
3.460000000000000000e+02,2.809336332958380034e+00,0.000000000000000000e+00
3.470000000000000000e+02,2.824803149606299080e+00,0.000000000000000000e+00
3.480000000000000000e+02,2.796681664791901056e+00,0.000000000000000000e+00
3.490000000000000000e+02,2.772075365579302453e+00,0.000000000000000000e+00
3.500000000000000000e+02,2.798087739032621091e+00,0.000000000000000000e+00
3.510000000000000000e+02,2.802305961754780750e+00,0.000000000000000000e+00
3.520000000000000000e+02,2.780511811023622215e+00,0.000000000000000000e+00
3.530000000000000000e+02,2.768560179977503033e+00,0.000000000000000000e+00
3.540000000000000000e+02,2.774887514060742522e+00,0.000000000000000000e+00
3.550000000000000000e+02,2.750984251968504157e+00,0.000000000000000000e+00
3.560000000000000000e+02,2.771372328458942658e+00,0.000000000000000000e+00
3.570000000000000000e+02,2.792463442069741397e+00,0.000000000000000000e+00
3.580000000000000000e+02,2.761529808773903305e+00,0.000000000000000000e+00
3.590000000000000000e+02,2.788948256467941533e+00,0.000000000000000000e+00
3.600000000000000000e+02,2.767857142857142794e+00,0.000000000000000000e+00
3.610000000000000000e+02,2.750281214848143918e+00,0.000000000000000000e+00
3.620000000000000000e+02,2.758014623172103441e+00,0.000000000000000000e+00
3.630000000000000000e+02,2.734814398200224872e+00,0.000000000000000000e+00
3.640000000000000000e+02,2.758717660292463236e+00,0.000000000000000000e+00
3.650000000000000000e+02,2.760123734533183271e+00,0.000000000000000000e+00
3.660000000000000000e+02,2.739735658042744770e+00,0.000000000000000000e+00
3.670000000000000000e+02,2.729190101237345178e+00,0.000000000000000000e+00
3.680000000000000000e+02,2.717941507311586236e+00,0.000000000000000000e+00
3.690000000000000000e+02,2.744656917885264225e+00,0.000000000000000000e+00
3.700000000000000000e+02,2.752390326209223748e+00,0.000000000000000000e+00
3.710000000000000000e+02,2.722862767154105690e+00,0.000000000000000000e+00
3.720000000000000000e+02,2.730596175478065213e+00,0.000000000000000000e+00
3.730000000000000000e+02,2.753093363329583987e+00,0.000000000000000000e+00
3.740000000000000000e+02,2.739032620922384531e+00,0.000000000000000000e+00
3.750000000000000000e+02,2.743250843644544634e+00,0.000000000000000000e+00
3.760000000000000000e+02,2.764341957255342930e+00,0.000000000000000000e+00
3.770000000000000000e+02,2.780511811023622215e+00,0.000000000000000000e+00
3.780000000000000000e+02,2.796681664791901056e+00,0.000000000000000000e+00
3.790000000000000000e+02,2.796681664791901056e+00,0.000000000000000000e+00
3.800000000000000000e+02,2.781917885264341805e+00,0.000000000000000000e+00
3.810000000000000000e+02,2.757311586051743646e+00,0.000000000000000000e+00
3.820000000000000000e+02,2.774184476940382282e+00,0.000000000000000000e+00
3.830000000000000000e+02,2.784026996625421635e+00,0.000000000000000000e+00
3.840000000000000000e+02,2.746062992125984259e+00,0.000000000000000000e+00
3.850000000000000000e+02,2.744656917885264225e+00,0.000000000000000000e+00
3.860000000000000000e+02,2.779105736782902181e+00,0.000000000000000000e+00
3.870000000000000000e+02,2.816366704161979762e+00,0.000000000000000000e+00
3.880000000000000000e+02,2.799493813273340681e+00,0.000000000000000000e+00
3.890000000000000000e+02,2.801602924634420511e+00,0.000000000000000000e+00
3.900000000000000000e+02,2.830427446569178773e+00,0.000000000000000000e+00
3.910000000000000000e+02,2.829724409448818978e+00,0.000000000000000000e+00
3.920000000000000000e+02,2.820584926884139421e+00,0.000000000000000000e+00
3.930000000000000000e+02,2.848003374578177649e+00,0.000000000000000000e+00
3.940000000000000000e+02,2.869094488188976388e+00,0.000000000000000000e+00
3.950000000000000000e+02,2.885264341957255230e+00,0.000000000000000000e+00
3.960000000000000000e+02,2.876827896512935911e+00,0.000000000000000000e+00
3.970000000000000000e+02,2.885967379077615469e+00,0.000000000000000000e+00
3.980000000000000000e+02,2.865579302587176524e+00,0.000000000000000000e+00
3.990000000000000000e+02,2.865579302587176524e+00,0.000000000000000000e+00
4.000000000000000000e+02,2.914791901012373287e+00,0.000000000000000000e+00
4.010000000000000000e+02,2.954865016872890937e+00,0.000000000000000000e+00
4.020000000000000000e+02,2.947131608548931414e+00,0.000000000000000000e+00
4.030000000000000000e+02,2.884561304836895435e+00,0.000000000000000000e+00
4.040000000000000000e+02,2.870500562429696423e+00,0.000000000000000000e+00
4.050000000000000000e+02,2.832536557930258603e+00,0.000000000000000000e+00
4.060000000000000000e+02,2.751687289088863952e+00,0.000000000000000000e+00
4.070000000000000000e+02,2.751687289088863952e+00,0.000000000000000000e+00
4.080000000000000000e+02,2.760826771653543510e+00,0.000000000000000000e+00
4.090000000000000000e+02,2.760123734533183271e+00,0.000000000000000000e+00
4.100000000000000000e+02,2.775590551181102317e+00,0.000000000000000000e+00
4.110000000000000000e+02,2.787542182227221499e+00,0.000000000000000000e+00
4.120000000000000000e+02,2.756608548931383407e+00,0.000000000000000000e+00
4.130000000000000000e+02,2.746766029246344054e+00,0.000000000000000000e+00
4.140000000000000000e+02,2.640607424071991005e+00,0.000000000000000000e+00
4.150000000000000000e+02,2.425478065241844838e+00,0.000000000000000000e+00
4.160000000000000000e+02,2.481721034870641329e+00,0.000000000000000000e+00
4.170000000000000000e+02,3.044150731158605350e+00,0.000000000000000000e+00
4.180000000000000000e+02,3.725393700787401396e+00,0.000000000000000000e+00
4.190000000000000000e+02,4.180961754780652129e+00,0.000000000000000000e+00
4.200000000000000000e+02,4.112064116985377105e+00,0.000000000000000000e+00
4.210000000000000000e+02,3.744375703037120307e+00,0.000000000000000000e+00
4.220000000000000000e+02,3.498312710911136048e+00,0.000000000000000000e+00
4.230000000000000000e+02,3.269825646794150664e+00,1.000000000000000000e+00
4.240000000000000000e+02,2.989313835770528893e+00,0.000000000000000000e+00
4.250000000000000000e+02,2.812851518560179898e+00,0.000000000000000000e+00
4.260000000000000000e+02,2.784730033745781874e+00,0.000000000000000000e+00
4.270000000000000000e+02,2.764341957255342930e+00,0.000000000000000000e+00
4.280000000000000000e+02,2.786839145106861704e+00,0.000000000000000000e+00
4.290000000000000000e+02,2.764341957255342930e+00,0.000000000000000000e+00
4.300000000000000000e+02,2.735517435320585111e+00,0.000000000000000000e+00
4.310000000000000000e+02,2.750281214848143918e+00,0.000000000000000000e+00
4.320000000000000000e+02,2.720753655793025860e+00,0.000000000000000000e+00
4.330000000000000000e+02,2.715832395950506406e+00,0.000000000000000000e+00
4.340000000000000000e+02,2.729190101237345178e+00,0.000000000000000000e+00
4.350000000000000000e+02,2.717941507311586236e+00,0.000000000000000000e+00
4.360000000000000000e+02,2.698959505061867326e+00,0.000000000000000000e+00
4.370000000000000000e+02,2.682789651293588484e+00,0.000000000000000000e+00
4.380000000000000000e+02,2.702474690663667189e+00,0.000000000000000000e+00
4.390000000000000000e+02,2.691226096737907802e+00,0.000000000000000000e+00
4.400000000000000000e+02,2.682789651293588484e+00,0.000000000000000000e+00
4.410000000000000000e+02,2.691226096737907802e+00,0.000000000000000000e+00
4.420000000000000000e+02,2.691929133858267598e+00,0.000000000000000000e+00
4.430000000000000000e+02,2.661698537682789745e+00,0.000000000000000000e+00
4.440000000000000000e+02,2.637092238470191141e+00,0.000000000000000000e+00
4.450000000000000000e+02,2.645528683914510903e+00,0.000000000000000000e+00
4.460000000000000000e+02,2.618813273340832470e+00,0.000000000000000000e+00
4.470000000000000000e+02,2.582958380202474480e+00,0.000000000000000000e+00
4.480000000000000000e+02,2.548509561304836968e+00,0.000000000000000000e+00
4.490000000000000000e+02,2.497890888638920170e+00,0.000000000000000000e+00
4.500000000000000000e+02,2.475393700787401396e+00,0.000000000000000000e+00
4.510000000000000000e+02,2.453599550056242862e+00,0.000000000000000000e+00
4.520000000000000000e+02,2.476799775028121431e+00,0.000000000000000000e+00
4.530000000000000000e+02,2.514763779527559251e+00,0.000000000000000000e+00
4.540000000000000000e+02,2.519685039370078705e+00,0.000000000000000000e+00
4.550000000000000000e+02,2.514060742407199012e+00,0.000000000000000000e+00
4.560000000000000000e+02,2.568897637795275468e+00,0.000000000000000000e+00
4.570000000000000000e+02,2.587879640044994378e+00,0.000000000000000000e+00
4.580000000000000000e+02,2.602643419572553629e+00,0.000000000000000000e+00
4.590000000000000000e+02,2.651152980877390153e+00,0.000000000000000000e+00
4.600000000000000000e+02,2.695444319460067462e+00,0.000000000000000000e+00
4.610000000000000000e+02,2.750281214848143918e+00,0.000000000000000000e+00
4.620000000000000000e+02,2.789651293588301328e+00,0.000000000000000000e+00
4.630000000000000000e+02,2.788245219347581738e+00,0.000000000000000000e+00
4.640000000000000000e+02,2.767154105736782999e+00,0.000000000000000000e+00
4.650000000000000000e+02,2.781917885264341805e+00,0.000000000000000000e+00
4.660000000000000000e+02,2.800899887514060715e+00,0.000000000000000000e+00
4.670000000000000000e+02,2.787542182227221499e+00,0.000000000000000000e+00
4.680000000000000000e+02,2.784730033745781874e+00,0.000000000000000000e+00
4.690000000000000000e+02,2.780511811023622215e+00,0.000000000000000000e+00
4.700000000000000000e+02,2.800899887514060715e+00,0.000000000000000000e+00
4.710000000000000000e+02,2.763638920134983135e+00,0.000000000000000000e+00
4.720000000000000000e+02,2.773481439820022487e+00,0.000000000000000000e+00
4.730000000000000000e+02,2.798790776152980886e+00,0.000000000000000000e+00
4.740000000000000000e+02,2.753093363329583987e+00,0.000000000000000000e+00
4.750000000000000000e+02,2.739032620922384531e+00,0.000000000000000000e+00
4.760000000000000000e+02,2.741844769403824600e+00,0.000000000000000000e+00
4.770000000000000000e+02,2.756608548931383407e+00,0.000000000000000000e+00
4.780000000000000000e+02,2.753796400449943782e+00,0.000000000000000000e+00
4.790000000000000000e+02,2.743953880764904429e+00,0.000000000000000000e+00
4.800000000000000000e+02,2.746062992125984259e+00,0.000000000000000000e+00
4.810000000000000000e+02,2.734814398200224872e+00,0.000000000000000000e+00
4.820000000000000000e+02,2.741844769403824600e+00,0.000000000000000000e+00
4.830000000000000000e+02,2.729893138357705418e+00,0.000000000000000000e+00
4.840000000000000000e+02,2.728487064116985383e+00,0.000000000000000000e+00
4.850000000000000000e+02,2.731299212598425008e+00,0.000000000000000000e+00
4.860000000000000000e+02,2.699662542182227121e+00,0.000000000000000000e+00
4.870000000000000000e+02,2.713723284589426132e+00,0.000000000000000000e+00
4.880000000000000000e+02,2.709505061867266473e+00,0.000000000000000000e+00
4.890000000000000000e+02,2.679977502812148416e+00,0.000000000000000000e+00
4.900000000000000000e+02,2.755202474690663816e+00,0.000000000000000000e+00
4.910000000000000000e+02,2.729190101237345178e+00,0.000000000000000000e+00
4.920000000000000000e+02,2.682789651293588484e+00,0.000000000000000000e+00
4.930000000000000000e+02,2.745359955005624464e+00,0.000000000000000000e+00
4.940000000000000000e+02,2.812851518560179898e+00,0.000000000000000000e+00
4.950000000000000000e+02,2.823397075365579489e+00,0.000000000000000000e+00
4.960000000000000000e+02,2.781917885264341805e+00,0.000000000000000000e+00
4.970000000000000000e+02,2.797384701912260851e+00,0.000000000000000000e+00
4.980000000000000000e+02,2.823397075365579489e+00,0.000000000000000000e+00
4.990000000000000000e+02,2.833239595050618842e+00,0.000000000000000000e+00
5.000000000000000000e+02,2.894403824521934787e+00,0.000000000000000000e+00
5.010000000000000000e+02,2.902137232845894310e+00,0.000000000000000000e+00
5.020000000000000000e+02,2.857142857142857206e+00,0.000000000000000000e+00
5.030000000000000000e+02,2.813554555680540137e+00,0.000000000000000000e+00
5.040000000000000000e+02,2.809336332958380034e+00,0.000000000000000000e+00
5.050000000000000000e+02,2.788948256467941533e+00,0.000000000000000000e+00
5.060000000000000000e+02,2.702474690663667189e+00,0.000000000000000000e+00
5.070000000000000000e+02,2.679977502812148416e+00,0.000000000000000000e+00
5.080000000000000000e+02,2.667322834645669438e+00,0.000000000000000000e+00
5.090000000000000000e+02,2.675056242969628961e+00,0.000000000000000000e+00
5.100000000000000000e+02,2.698256467941507530e+00,0.000000000000000000e+00
5.110000000000000000e+02,2.677868391451068586e+00,0.000000000000000000e+00
5.120000000000000000e+02,2.684898762654668314e+00,0.000000000000000000e+00
5.130000000000000000e+02,2.664510686164229369e+00,0.000000000000000000e+00
5.140000000000000000e+02,2.683492688413948279e+00,0.000000000000000000e+00
5.150000000000000000e+02,2.652559055118110187e+00,0.000000000000000000e+00
5.160000000000000000e+02,2.519685039370078705e+00,0.000000000000000000e+00
5.170000000000000000e+02,2.379780652418447495e+00,0.000000000000000000e+00
5.180000000000000000e+02,2.700365579302587360e+00,0.000000000000000000e+00
5.190000000000000000e+02,3.390748031496062964e+00,0.000000000000000000e+00
5.200000000000000000e+02,3.988329583802024736e+00,0.000000000000000000e+00
5.210000000000000000e+02,4.195725534308211380e+00,0.000000000000000000e+00
5.220000000000000000e+02,3.908886389201349676e+00,0.000000000000000000e+00
5.230000000000000000e+02,3.657199100112485723e+00,0.000000000000000000e+00
5.240000000000000000e+02,3.454021372328458739e+00,1.000000000000000000e+00
5.250000000000000000e+02,3.107424071991001124e+00,0.000000000000000000e+00
5.260000000000000000e+02,2.798087739032621091e+00,0.000000000000000000e+00
5.270000000000000000e+02,2.699662542182227121e+00,0.000000000000000000e+00
5.280000000000000000e+02,2.729893138357705418e+00,0.000000000000000000e+00
5.290000000000000000e+02,2.741141732283464361e+00,0.000000000000000000e+00
5.300000000000000000e+02,2.696147356580427257e+00,0.000000000000000000e+00
5.310000000000000000e+02,2.678571428571428381e+00,0.000000000000000000e+00
5.320000000000000000e+02,2.686304836895387904e+00,0.000000000000000000e+00
5.330000000000000000e+02,2.696147356580427257e+00,0.000000000000000000e+00
5.340000000000000000e+02,2.710911136107986508e+00,0.000000000000000000e+00
5.350000000000000000e+02,2.684195725534308075e+00,0.000000000000000000e+00
5.360000000000000000e+02,2.681383577052868450e+00,0.000000000000000000e+00
5.370000000000000000e+02,2.690523059617548007e+00,0.000000000000000000e+00
5.380000000000000000e+02,2.712317210348706542e+00,0.000000000000000000e+00
5.390000000000000000e+02,2.739735658042744770e+00,0.000000000000000000e+00
5.400000000000000000e+02,2.699662542182227121e+00,0.000000000000000000e+00
5.410000000000000000e+02,2.668025871766029233e+00,0.000000000000000000e+00
5.420000000000000000e+02,2.653965129358830222e+00,0.000000000000000000e+00
5.430000000000000000e+02,2.694038245219347427e+00,0.000000000000000000e+00
5.440000000000000000e+02,2.708098987626546883e+00,0.000000000000000000e+00
5.450000000000000000e+02,2.679977502812148416e+00,0.000000000000000000e+00
5.460000000000000000e+02,2.708098987626546883e+00,0.000000000000000000e+00
5.470000000000000000e+02,2.689116985376827973e+00,0.000000000000000000e+00
5.480000000000000000e+02,2.650449943757030358e+00,0.000000000000000000e+00
5.490000000000000000e+02,2.616001124859392402e+00,0.000000000000000000e+00
5.500000000000000000e+02,2.574521934758155162e+00,0.000000000000000000e+00
5.510000000000000000e+02,2.582255343082114685e+00,0.000000000000000000e+00
5.520000000000000000e+02,2.566085489313835843e+00,0.000000000000000000e+00
5.530000000000000000e+02,2.462739032620922419e+00,0.000000000000000000e+00
5.540000000000000000e+02,2.459223847019122555e+00,0.000000000000000000e+00
5.550000000000000000e+02,2.549212598425196763e+00,0.000000000000000000e+00
5.560000000000000000e+02,2.621625421822272095e+00,0.000000000000000000e+00
5.570000000000000000e+02,2.649746906636670563e+00,0.000000000000000000e+00
5.580000000000000000e+02,2.678571428571428381e+00,0.000000000000000000e+00
5.590000000000000000e+02,2.748875140607423884e+00,0.000000000000000000e+00
5.600000000000000000e+02,2.812148481439820102e+00,0.000000000000000000e+00
5.610000000000000000e+02,2.808633295838020238e+00,0.000000000000000000e+00
5.620000000000000000e+02,2.815663667041619966e+00,0.000000000000000000e+00
5.630000000000000000e+02,2.835348706411698672e+00,0.000000000000000000e+00
5.640000000000000000e+02,2.840973003374578365e+00,0.000000000000000000e+00
5.650000000000000000e+02,2.848706411698537888e+00,0.000000000000000000e+00
5.660000000000000000e+02,2.855736782902137172e+00,0.000000000000000000e+00
5.670000000000000000e+02,2.817069741282339557e+00,0.000000000000000000e+00
5.680000000000000000e+02,2.829021372328458739e+00,0.000000000000000000e+00
5.690000000000000000e+02,2.873312710911136048e+00,0.000000000000000000e+00
5.700000000000000000e+02,2.880343082114735775e+00,0.000000000000000000e+00
5.710000000000000000e+02,2.872609673790776252e+00,0.000000000000000000e+00
5.720000000000000000e+02,2.884561304836895435e+00,0.000000000000000000e+00
5.730000000000000000e+02,2.855736782902137172e+00,0.000000000000000000e+00
5.740000000000000000e+02,2.849409448818897683e+00,0.000000000000000000e+00
5.750000000000000000e+02,2.855033745781777377e+00,0.000000000000000000e+00
5.760000000000000000e+02,2.862767154105736900e+00,0.000000000000000000e+00
5.770000000000000000e+02,2.864173228346456490e+00,0.000000000000000000e+00
5.780000000000000000e+02,2.843785151856017990e+00,0.000000000000000000e+00
5.790000000000000000e+02,2.880343082114735775e+00,0.000000000000000000e+00
5.800000000000000000e+02,2.868391451068616593e+00,0.000000000000000000e+00
5.810000000000000000e+02,2.852221597300337308e+00,0.000000000000000000e+00
5.820000000000000000e+02,2.854330708661417138e+00,0.000000000000000000e+00
5.830000000000000000e+02,2.861361079865016865e+00,0.000000000000000000e+00
5.840000000000000000e+02,2.876827896512935911e+00,0.000000000000000000e+00
5.850000000000000000e+02,2.897215973003374412e+00,0.000000000000000000e+00
5.860000000000000000e+02,2.940804274465691925e+00,0.000000000000000000e+00
5.870000000000000000e+02,2.947834645669291209e+00,0.000000000000000000e+00
5.880000000000000000e+02,2.909167604049493594e+00,0.000000000000000000e+00
5.890000000000000000e+02,2.915494938132733527e+00,0.000000000000000000e+00
5.900000000000000000e+02,2.946428571428571619e+00,0.000000000000000000e+00
5.910000000000000000e+02,3.009701912260967394e+00,0.000000000000000000e+00
5.920000000000000000e+02,3.053993250843644702e+00,0.000000000000000000e+00
5.930000000000000000e+02,3.047665916760404770e+00,0.000000000000000000e+00
5.940000000000000000e+02,3.024465691788526645e+00,0.000000000000000000e+00
5.950000000000000000e+02,3.038526434195725656e+00,0.000000000000000000e+00
5.960000000000000000e+02,3.013217097862767258e+00,0.000000000000000000e+00
5.970000000000000000e+02,2.961895388076490221e+00,0.000000000000000000e+00
5.980000000000000000e+02,2.920416197975252981e+00,0.000000000000000000e+00
5.990000000000000000e+02,2.891591676040494718e+00,0.000000000000000000e+00
6.000000000000000000e+02,2.836051743532058467e+00,0.000000000000000000e+00
6.010000000000000000e+02,2.814960629921259727e+00,0.000000000000000000e+00
6.020000000000000000e+02,2.829021372328458739e+00,0.000000000000000000e+00
6.030000000000000000e+02,2.828318335208098944e+00,0.000000000000000000e+00
6.040000000000000000e+02,2.890888638920134923e+00,0.000000000000000000e+00
6.050000000000000000e+02,2.883858267716535639e+00,0.000000000000000000e+00
6.060000000000000000e+02,2.844488188976377785e+00,0.000000000000000000e+00
6.070000000000000000e+02,2.809336332958380034e+00,0.000000000000000000e+00
6.080000000000000000e+02,2.738329583802024736e+00,0.000000000000000000e+00
6.090000000000000000e+02,2.540073115860517650e+00,0.000000000000000000e+00
6.100000000000000000e+02,2.493672665916760511e+00,0.000000000000000000e+00
6.110000000000000000e+02,2.846597300337457614e+00,0.000000000000000000e+00
6.120000000000000000e+02,3.552446569178852709e+00,0.000000000000000000e+00
6.130000000000000000e+02,4.211192350956130426e+00,0.000000000000000000e+00
6.140000000000000000e+02,4.370078740157480546e+00,0.000000000000000000e+00
6.150000000000000000e+02,4.031917885264341805e+00,0.000000000000000000e+00
6.160000000000000000e+02,3.745781777277840341e+00,0.000000000000000000e+00
6.170000000000000000e+02,3.555961754780652573e+00,1.000000000000000000e+00
6.180000000000000000e+02,3.198818897637795367e+00,0.000000000000000000e+00
6.190000000000000000e+02,2.885264341957255230e+00,0.000000000000000000e+00
6.200000000000000000e+02,2.843082114735658195e+00,0.000000000000000000e+00
6.210000000000000000e+02,2.874015748031495843e+00,0.000000000000000000e+00
6.220000000000000000e+02,2.940804274465691925e+00,0.000000000000000000e+00
6.230000000000000000e+02,2.897215973003374412e+00,0.000000000000000000e+00
6.240000000000000000e+02,2.779105736782902181e+00,0.000000000000000000e+00
6.250000000000000000e+02,2.742547806524184395e+00,0.000000000000000000e+00
6.260000000000000000e+02,2.784730033745781874e+00,0.000000000000000000e+00
6.270000000000000000e+02,2.747469066366704293e+00,0.000000000000000000e+00
6.280000000000000000e+02,2.715832395950506406e+00,0.000000000000000000e+00
6.290000000000000000e+02,2.774887514060742522e+00,0.000000000000000000e+00
6.300000000000000000e+02,2.863470191226096695e+00,0.000000000000000000e+00
6.310000000000000000e+02,2.834645669291338432e+00,0.000000000000000000e+00
6.320000000000000000e+02,2.765044994375703169e+00,0.000000000000000000e+00
6.330000000000000000e+02,2.764341957255342930e+00,0.000000000000000000e+00
6.340000000000000000e+02,2.766451068616422759e+00,0.000000000000000000e+00
6.350000000000000000e+02,2.752390326209223748e+00,0.000000000000000000e+00
6.360000000000000000e+02,2.769263217097862828e+00,0.000000000000000000e+00
6.370000000000000000e+02,2.839566929133858331e+00,0.000000000000000000e+00
6.380000000000000000e+02,2.813554555680540137e+00,0.000000000000000000e+00
6.390000000000000000e+02,2.734111361079865077e+00,0.000000000000000000e+00
6.400000000000000000e+02,2.703880764904386780e+00,0.000000000000000000e+00
6.410000000000000000e+02,2.723565804274465485e+00,0.000000000000000000e+00
6.420000000000000000e+02,2.663104611923509779e+00,0.000000000000000000e+00
6.430000000000000000e+02,2.611782902137232742e+00,0.000000000000000000e+00
6.440000000000000000e+02,2.625140607424071959e+00,0.000000000000000000e+00
6.450000000000000000e+02,2.643419572553430630e+00,0.000000000000000000e+00
6.460000000000000000e+02,2.561867266591676184e+00,0.000000000000000000e+00
6.470000000000000000e+02,2.521091113610798740e+00,0.000000000000000000e+00
6.480000000000000000e+02,2.566788526434195639e+00,0.000000000000000000e+00
6.490000000000000000e+02,2.656777277840269846e+00,0.000000000000000000e+00
6.500000000000000000e+02,2.732705286839145042e+00,0.000000000000000000e+00
6.510000000000000000e+02,2.778402699662542386e+00,0.000000000000000000e+00
6.520000000000000000e+02,2.812148481439820102e+00,0.000000000000000000e+00
6.530000000000000000e+02,2.816366704161979762e+00,0.000000000000000000e+00
6.540000000000000000e+02,2.799493813273340681e+00,0.000000000000000000e+00
6.550000000000000000e+02,2.834645669291338432e+00,0.000000000000000000e+00
6.560000000000000000e+02,2.947131608548931414e+00,0.000000000000000000e+00
6.570000000000000000e+02,2.973143982002249608e+00,0.000000000000000000e+00
6.580000000000000000e+02,2.916197975253093322e+00,0.000000000000000000e+00
6.590000000000000000e+02,2.942210348706411516e+00,0.000000000000000000e+00
6.600000000000000000e+02,2.969628796400449744e+00,0.000000000000000000e+00
6.610000000000000000e+02,2.993532058492688552e+00,0.000000000000000000e+00
6.620000000000000000e+02,2.982283464566929165e+00,0.000000000000000000e+00
6.630000000000000000e+02,2.829724409448818978e+00,0.000000000000000000e+00
6.640000000000000000e+02,2.498593925759279966e+00,0.000000000000000000e+00
6.650000000000000000e+02,1.960770528683914549e+00,0.000000000000000000e+00
6.660000000000000000e+02,1.429977502812148416e+00,0.000000000000000000e+00
6.670000000000000000e+02,1.068616422947131550e+00,0.000000000000000000e+00
6.680000000000000000e+02,1.176884139482564651e+00,0.000000000000000000e+00
6.690000000000000000e+02,1.811726659167604003e+00,0.000000000000000000e+00
6.700000000000000000e+02,2.347440944881889813e+00,0.000000000000000000e+00
6.710000000000000000e+02,2.438132733408323816e+00,0.000000000000000000e+00
6.720000000000000000e+02,2.320725534308211380e+00,0.000000000000000000e+00
6.730000000000000000e+02,2.253233970753655946e+00,0.000000000000000000e+00
6.740000000000000000e+02,2.208942632170978637e+00,0.000000000000000000e+00
6.750000000000000000e+02,2.314398200224971891e+00,0.000000000000000000e+00
6.760000000000000000e+02,2.476096737907761636e+00,0.000000000000000000e+00
6.770000000000000000e+02,2.619516310461192266e+00,0.000000000000000000e+00
6.780000000000000000e+02,2.942913385826771755e+00,0.000000000000000000e+00
6.790000000000000000e+02,3.103205849268841465e+00,0.000000000000000000e+00
6.800000000000000000e+02,3.057508436445444122e+00,0.000000000000000000e+00
6.810000000000000000e+02,3.105314960629921295e+00,0.000000000000000000e+00
6.820000000000000000e+02,3.158042744656917922e+00,0.000000000000000000e+00
6.830000000000000000e+02,3.172103487064116933e+00,0.000000000000000000e+00
6.840000000000000000e+02,3.193897637795275468e+00,0.000000000000000000e+00
6.850000000000000000e+02,3.202334083239595230e+00,0.000000000000000000e+00
6.860000000000000000e+02,3.271231721034870699e+00,0.000000000000000000e+00
6.870000000000000000e+02,3.288807649043869574e+00,0.000000000000000000e+00
6.880000000000000000e+02,3.298650168728908927e+00,0.000000000000000000e+00
6.890000000000000000e+02,3.338020247469066337e+00,0.000000000000000000e+00
6.900000000000000000e+02,3.342238470191225996e+00,0.000000000000000000e+00
6.910000000000000000e+02,3.418166479190101192e+00,0.000000000000000000e+00
6.920000000000000000e+02,3.589004499437570495e+00,0.000000000000000000e+00
6.930000000000000000e+02,3.641732283464567121e+00,0.000000000000000000e+00
6.940000000000000000e+02,3.663526434195725656e+00,0.000000000000000000e+00
6.950000000000000000e+02,3.773903262092238364e+00,0.000000000000000000e+00
6.960000000000000000e+02,3.888498312710911176e+00,0.000000000000000000e+00
6.970000000000000000e+02,3.961614173228346303e+00,0.000000000000000000e+00
6.980000000000000000e+02,3.984111361079865077e+00,0.000000000000000000e+00
6.990000000000000000e+02,3.996062992125984259e+00,0.000000000000000000e+00
7.000000000000000000e+02,3.979190101237345178e+00,0.000000000000000000e+00
7.010000000000000000e+02,3.932086614173228245e+00,0.000000000000000000e+00
7.020000000000000000e+02,3.804836895388076456e+00,0.000000000000000000e+00
7.030000000000000000e+02,3.678290213723284463e+00,0.000000000000000000e+00
7.040000000000000000e+02,3.570725534308211380e+00,0.000000000000000000e+00
7.050000000000000000e+02,3.411136107986501909e+00,0.000000000000000000e+00
7.060000000000000000e+02,3.291619797525309199e+00,0.000000000000000000e+00
7.070000000000000000e+02,3.229752530933633459e+00,0.000000000000000000e+00
7.080000000000000000e+02,3.143278965129358671e+00,0.000000000000000000e+00
7.090000000000000000e+02,3.053290213723284463e+00,0.000000000000000000e+00
7.100000000000000000e+02,3.002671541057367666e+00,0.000000000000000000e+00
7.110000000000000000e+02,2.907761529808774004e+00,0.000000000000000000e+00
7.120000000000000000e+02,2.766451068616422759e+00,0.000000000000000000e+00
7.130000000000000000e+02,2.806524184476940409e+00,0.000000000000000000e+00
7.140000000000000000e+02,2.820584926884139421e+00,0.000000000000000000e+00
7.150000000000000000e+02,2.821287964004499216e+00,0.000000000000000000e+00
7.160000000000000000e+02,2.784730033745781874e+00,0.000000000000000000e+00
7.170000000000000000e+02,2.819881889763779625e+00,0.000000000000000000e+00
7.180000000000000000e+02,2.942913385826771755e+00,0.000000000000000000e+00
7.190000000000000000e+02,2.975253093363329437e+00,0.000000000000000000e+00
7.200000000000000000e+02,2.985798650168729029e+00,0.000000000000000000e+00
7.210000000000000000e+02,2.978768278965129301e+00,0.000000000000000000e+00
7.220000000000000000e+02,2.987204724409448620e+00,0.000000000000000000e+00
7.230000000000000000e+02,2.933773903262092198e+00,0.000000000000000000e+00
7.240000000000000000e+02,2.868391451068616593e+00,0.000000000000000000e+00
7.250000000000000000e+02,2.850815523059617718e+00,0.000000000000000000e+00
7.260000000000000000e+02,2.829021372328458739e+00,0.000000000000000000e+00
7.270000000000000000e+02,2.871906636670416013e+00,0.000000000000000000e+00
7.280000000000000000e+02,2.855033745781777377e+00,0.000000000000000000e+00
7.290000000000000000e+02,2.766451068616422759e+00,0.000000000000000000e+00
7.300000000000000000e+02,2.801602924634420511e+00,0.000000000000000000e+00
7.310000000000000000e+02,2.886670416197975264e+00,0.000000000000000000e+00
7.320000000000000000e+02,2.826209223847019114e+00,0.000000000000000000e+00
7.330000000000000000e+02,2.739032620922384531e+00,0.000000000000000000e+00
7.340000000000000000e+02,2.770669291338582862e+00,0.000000000000000000e+00
7.350000000000000000e+02,2.791057367829021363e+00,0.000000000000000000e+00
7.360000000000000000e+02,2.838160854893138296e+00,0.000000000000000000e+00
7.370000000000000000e+02,2.883858267716535639e+00,0.000000000000000000e+00
7.380000000000000000e+02,2.847300337457817854e+00,0.000000000000000000e+00
7.390000000000000000e+02,2.803712035995500784e+00,0.000000000000000000e+00
7.400000000000000000e+02,2.851518560179977513e+00,0.000000000000000000e+00
7.410000000000000000e+02,2.847300337457817854e+00,0.000000000000000000e+00
7.420000000000000000e+02,2.768560179977503033e+00,0.000000000000000000e+00
7.430000000000000000e+02,2.749578177727784123e+00,0.000000000000000000e+00
7.440000000000000000e+02,2.757311586051743646e+00,0.000000000000000000e+00
7.450000000000000000e+02,2.774184476940382282e+00,0.000000000000000000e+00
7.460000000000000000e+02,2.803712035995500784e+00,0.000000000000000000e+00
7.470000000000000000e+02,2.772778402699662692e+00,0.000000000000000000e+00
7.480000000000000000e+02,2.755905511811023612e+00,0.000000000000000000e+00
7.490000000000000000e+02,2.772075365579302453e+00,0.000000000000000000e+00
7.500000000000000000e+02,2.834645669291338432e+00,0.000000000000000000e+00
7.510000000000000000e+02,2.824803149606299080e+00,0.000000000000000000e+00
7.520000000000000000e+02,2.795275590551181022e+00,0.000000000000000000e+00
7.530000000000000000e+02,2.795275590551181022e+00,0.000000000000000000e+00
7.540000000000000000e+02,2.761529808773903305e+00,0.000000000000000000e+00
7.550000000000000000e+02,2.869797525309336184e+00,0.000000000000000000e+00
7.560000000000000000e+02,3.136951631046119182e+00,0.000000000000000000e+00
7.570000000000000000e+02,3.233267716535432879e+00,0.000000000000000000e+00
7.580000000000000000e+02,2.854330708661417138e+00,0.000000000000000000e+00
7.590000000000000000e+02,2.463442069741282214e+00,0.000000000000000000e+00
7.600000000000000000e+02,2.501406074240720034e+00,0.000000000000000000e+00
7.610000000000000000e+02,2.637092238470191141e+00,0.000000000000000000e+00
7.620000000000000000e+02,2.687007874015748143e+00,0.000000000000000000e+00
7.630000000000000000e+02,2.698959505061867326e+00,0.000000000000000000e+00
7.640000000000000000e+02,2.736923509561304702e+00,0.000000000000000000e+00
7.650000000000000000e+02,2.812851518560179898e+00,0.000000000000000000e+00
7.660000000000000000e+02,2.833942632170978637e+00,0.000000000000000000e+00
7.670000000000000000e+02,2.750984251968504157e+00,0.000000000000000000e+00
7.680000000000000000e+02,2.921822272215973015e+00,0.000000000000000000e+00
7.690000000000000000e+02,3.328177727784026985e+00,0.000000000000000000e+00
7.700000000000000000e+02,3.038526434195725656e+00,0.000000000000000000e+00
7.710000000000000000e+02,2.604752530933633459e+00,0.000000000000000000e+00
7.720000000000000000e+02,2.609673790776152913e+00,0.000000000000000000e+00
7.730000000000000000e+02,2.747469066366704293e+00,0.000000000000000000e+00
7.740000000000000000e+02,2.807930258717660443e+00,0.000000000000000000e+00
7.750000000000000000e+02,2.772778402699662692e+00,0.000000000000000000e+00
7.760000000000000000e+02,2.777699662542182146e+00,0.000000000000000000e+00
7.770000000000000000e+02,2.815663667041619966e+00,0.000000000000000000e+00
7.780000000000000000e+02,2.866985376827896559e+00,0.000000000000000000e+00
7.790000000000000000e+02,2.940101237345331686e+00,0.000000000000000000e+00
7.800000000000000000e+02,2.949943757030371039e+00,0.000000000000000000e+00
7.810000000000000000e+02,2.901434195725534515e+00,0.000000000000000000e+00
7.820000000000000000e+02,2.877530933633295707e+00,0.000000000000000000e+00
7.830000000000000000e+02,2.890185601799775128e+00,0.000000000000000000e+00
7.840000000000000000e+02,2.831130483689539012e+00,0.000000000000000000e+00
7.850000000000000000e+02,2.720050618672666065e+00,0.000000000000000000e+00
7.860000000000000000e+02,2.729190101237345178e+00,0.000000000000000000e+00
7.870000000000000000e+02,2.751687289088863952e+00,0.000000000000000000e+00
7.880000000000000000e+02,2.731299212598425008e+00,0.000000000000000000e+00
7.890000000000000000e+02,2.746062992125984259e+00,0.000000000000000000e+00
7.900000000000000000e+02,2.733408323959505282e+00,0.000000000000000000e+00
7.910000000000000000e+02,2.712317210348706542e+00,0.000000000000000000e+00
7.920000000000000000e+02,2.703880764904386780e+00,0.000000000000000000e+00
7.930000000000000000e+02,2.621625421822272095e+00,0.000000000000000000e+00
7.940000000000000000e+02,2.451490438695163032e+00,0.000000000000000000e+00
7.950000000000000000e+02,2.460629921259842590e+00,0.000000000000000000e+00
7.960000000000000000e+02,2.881046119235095571e+00,0.000000000000000000e+00
7.970000000000000000e+02,3.528543307086614345e+00,0.000000000000000000e+00
7.980000000000000000e+02,4.070584926884139421e+00,0.000000000000000000e+00
7.990000000000000000e+02,4.091676040494937716e+00,0.000000000000000000e+00
8.000000000000000000e+02,3.726799775028121431e+00,0.000000000000000000e+00
8.010000000000000000e+02,3.515185601799775128e+00,0.000000000000000000e+00
8.020000000000000000e+02,3.357002249718785247e+00,1.000000000000000000e+00
8.030000000000000000e+02,2.996344206974128177e+00,0.000000000000000000e+00
8.040000000000000000e+02,2.674353205849268722e+00,0.000000000000000000e+00
8.050000000000000000e+02,2.637092238470191141e+00,0.000000000000000000e+00
8.060000000000000000e+02,2.659589426321709915e+00,0.000000000000000000e+00
8.070000000000000000e+02,2.636389201349831346e+00,0.000000000000000000e+00
8.080000000000000000e+02,2.616001124859392402e+00,0.000000000000000000e+00
8.090000000000000000e+02,2.612485939257592982e+00,0.000000000000000000e+00
8.100000000000000000e+02,2.598425196850393526e+00,0.000000000000000000e+00
8.110000000000000000e+02,2.564679415073115809e+00,0.000000000000000000e+00
8.120000000000000000e+02,2.542885264341957274e+00,0.000000000000000000e+00
8.130000000000000000e+02,2.658886389201349676e+00,0.000000000000000000e+00
8.140000000000000000e+02,2.802305961754780750e+00,0.000000000000000000e+00
8.150000000000000000e+02,2.618813273340832470e+00,0.000000000000000000e+00
8.160000000000000000e+02,2.464145106861642454e+00,0.000000000000000000e+00
8.170000000000000000e+02,2.471175478065241737e+00,0.000000000000000000e+00
8.180000000000000000e+02,2.501406074240720034e+00,0.000000000000000000e+00
8.190000000000000000e+02,2.533042744656917922e+00,0.000000000000000000e+00
8.200000000000000000e+02,2.593503937007874072e+00,0.000000000000000000e+00
8.210000000000000000e+02,2.563273340832395775e+00,0.000000000000000000e+00
8.220000000000000000e+02,2.550618672665916797e+00,0.000000000000000000e+00
8.230000000000000000e+02,2.489454443194600852e+00,0.000000000000000000e+00
8.240000000000000000e+02,2.358689538807649200e+00,0.000000000000000000e+00
8.250000000000000000e+02,2.322834645669291209e+00,0.000000000000000000e+00
8.260000000000000000e+02,2.504921259842519898e+00,0.000000000000000000e+00
8.270000000000000000e+02,2.855033745781777377e+00,0.000000000000000000e+00
8.280000000000000000e+02,2.598425196850393526e+00,0.000000000000000000e+00
8.290000000000000000e+02,2.133014623172103441e+00,0.000000000000000000e+00
8.300000000000000000e+02,2.090832395950506406e+00,0.000000000000000000e+00
8.310000000000000000e+02,2.194881889763779625e+00,0.000000000000000000e+00
8.320000000000000000e+02,2.251827896512935911e+00,0.000000000000000000e+00
8.330000000000000000e+02,2.310179977502812232e+00,0.000000000000000000e+00
8.340000000000000000e+02,2.328458942632170903e+00,0.000000000000000000e+00
8.350000000000000000e+02,2.359392575928008995e+00,0.000000000000000000e+00
8.360000000000000000e+02,2.470472440944881942e+00,0.000000000000000000e+00
8.370000000000000000e+02,2.559055118110236116e+00,0.000000000000000000e+00
8.380000000000000000e+02,2.571709786276715537e+00,0.000000000000000000e+00
8.390000000000000000e+02,2.544291338582677309e+00,0.000000000000000000e+00
8.400000000000000000e+02,2.615298087739032606e+00,0.000000000000000000e+00
8.410000000000000000e+02,2.660995500562429505e+00,0.000000000000000000e+00
8.420000000000000000e+02,2.644825646794150664e+00,0.000000000000000000e+00
8.430000000000000000e+02,2.616001124859392402e+00,0.000000000000000000e+00
8.440000000000000000e+02,2.617407199100112436e+00,0.000000000000000000e+00
8.450000000000000000e+02,2.651152980877390153e+00,0.000000000000000000e+00
8.460000000000000000e+02,2.604752530933633459e+00,0.000000000000000000e+00
8.470000000000000000e+02,2.597019122609673936e+00,0.000000000000000000e+00
8.480000000000000000e+02,2.597722159730033731e+00,0.000000000000000000e+00
8.490000000000000000e+02,2.605455568053993254e+00,0.000000000000000000e+00
8.500000000000000000e+02,2.649746906636670563e+00,0.000000000000000000e+00
8.510000000000000000e+02,2.601237345331833595e+00,0.000000000000000000e+00
8.520000000000000000e+02,2.611782902137232742e+00,0.000000000000000000e+00
8.530000000000000000e+02,2.625140607424071959e+00,0.000000000000000000e+00
8.540000000000000000e+02,2.523903262092238364e+00,0.000000000000000000e+00
8.550000000000000000e+02,2.492266591676040477e+00,0.000000000000000000e+00
8.560000000000000000e+02,2.558352080989876320e+00,0.000000000000000000e+00
8.570000000000000000e+02,2.556242969628796491e+00,0.000000000000000000e+00
8.580000000000000000e+02,2.483127109111360920e+00,0.000000000000000000e+00
8.590000000000000000e+02,2.528824521934758263e+00,0.000000000000000000e+00
8.600000000000000000e+02,2.592097862767154037e+00,0.000000000000000000e+00
8.610000000000000000e+02,2.557649043869516525e+00,0.000000000000000000e+00
8.620000000000000000e+02,2.504218222722159659e+00,0.000000000000000000e+00
8.630000000000000000e+02,2.478908886389201260e+00,0.000000000000000000e+00
8.640000000000000000e+02,2.521794150731158535e+00,0.000000000000000000e+00
8.650000000000000000e+02,2.651152980877390153e+00,0.000000000000000000e+00
8.660000000000000000e+02,2.799493813273340681e+00,0.000000000000000000e+00
8.670000000000000000e+02,2.723565804274465485e+00,0.000000000000000000e+00
8.680000000000000000e+02,2.565382452193475604e+00,0.000000000000000000e+00
8.690000000000000000e+02,2.556946006749156286e+00,0.000000000000000000e+00
8.700000000000000000e+02,2.640607424071991005e+00,0.000000000000000000e+00
8.710000000000000000e+02,2.696850393700787496e+00,0.000000000000000000e+00
8.720000000000000000e+02,2.710208098987626713e+00,0.000000000000000000e+00
8.730000000000000000e+02,2.677165354330708791e+00,0.000000000000000000e+00
8.740000000000000000e+02,2.618813273340832470e+00,0.000000000000000000e+00
8.750000000000000000e+02,2.545697412823396899e+00,0.000000000000000000e+00
8.760000000000000000e+02,2.515466816647919046e+00,0.000000000000000000e+00
8.770000000000000000e+02,2.559758155230596355e+00,0.000000000000000000e+00
8.780000000000000000e+02,2.524606299212598604e+00,0.000000000000000000e+00
8.790000000000000000e+02,2.478205849268841465e+00,0.000000000000000000e+00
8.800000000000000000e+02,2.488751406074240613e+00,0.000000000000000000e+00
8.810000000000000000e+02,2.467660292463441873e+00,0.000000000000000000e+00
8.820000000000000000e+02,2.450787401574803237e+00,0.000000000000000000e+00
8.830000000000000000e+02,2.458520809898762760e+00,0.000000000000000000e+00
8.840000000000000000e+02,2.457817772778402521e+00,0.000000000000000000e+00
8.850000000000000000e+02,2.443757030371203509e+00,0.000000000000000000e+00
8.860000000000000000e+02,2.372750281214848211e+00,0.000000000000000000e+00
8.870000000000000000e+02,2.147075365579302453e+00,0.000000000000000000e+00
8.880000000000000000e+02,2.034589426321709915e+00,0.000000000000000000e+00
8.890000000000000000e+02,2.500703037120359795e+00,0.000000000000000000e+00
8.900000000000000000e+02,3.281074240719910051e+00,0.000000000000000000e+00
8.910000000000000000e+02,3.873031496062992129e+00,0.000000000000000000e+00
8.920000000000000000e+02,3.961614173228346303e+00,0.000000000000000000e+00
8.930000000000000000e+02,3.527840269966254105e+00,0.000000000000000000e+00
8.940000000000000000e+02,3.201631046119234991e+00,0.000000000000000000e+00
8.950000000000000000e+02,2.984392575928008995e+00,1.000000000000000000e+00
8.960000000000000000e+02,2.672947131608549132e+00,0.000000000000000000e+00
8.970000000000000000e+02,2.436023622047243986e+00,0.000000000000000000e+00
8.980000000000000000e+02,2.369938132733408143e+00,0.000000000000000000e+00
8.990000000000000000e+02,2.357283464566929165e+00,0.000000000000000000e+00
9.000000000000000000e+02,2.363610798650168654e+00,0.000000000000000000e+00
9.010000000000000000e+02,2.385404949381327189e+00,0.000000000000000000e+00
9.020000000000000000e+02,2.353065241844769506e+00,0.000000000000000000e+00
9.030000000000000000e+02,2.327052868391450868e+00,0.000000000000000000e+00
9.040000000000000000e+02,2.328458942632170903e+00,0.000000000000000000e+00
9.050000000000000000e+02,2.322131608548931414e+00,0.000000000000000000e+00
9.060000000000000000e+02,2.338301462317210255e+00,0.000000000000000000e+00
9.070000000000000000e+02,2.381889763779527769e+00,0.000000000000000000e+00
9.080000000000000000e+02,2.381186726659167530e+00,0.000000000000000000e+00
9.090000000000000000e+02,2.334083239595050596e+00,0.000000000000000000e+00
9.100000000000000000e+02,2.296822272215973015e+00,0.000000000000000000e+00
9.110000000000000000e+02,2.295416197975252981e+00,0.000000000000000000e+00
9.120000000000000000e+02,2.287682789651293458e+00,0.000000000000000000e+00
9.130000000000000000e+02,2.282761529808774004e+00,0.000000000000000000e+00
9.140000000000000000e+02,2.313695163104612096e+00,0.000000000000000000e+00
9.150000000000000000e+02,2.299634420697412640e+00,0.000000000000000000e+00
9.160000000000000000e+02,2.275028121484814481e+00,0.000000000000000000e+00
9.170000000000000000e+02,2.250421822272215877e+00,0.000000000000000000e+00
9.180000000000000000e+02,2.210348706411698672e+00,0.000000000000000000e+00
9.190000000000000000e+02,2.259561304836895435e+00,0.000000000000000000e+00
9.200000000000000000e+02,2.211051743532058467e+00,0.000000000000000000e+00
9.210000000000000000e+02,2.121766029246344054e+00,0.000000000000000000e+00
9.220000000000000000e+02,2.113329583802024736e+00,0.000000000000000000e+00
9.230000000000000000e+02,2.080286839145106814e+00,0.000000000000000000e+00
9.240000000000000000e+02,2.075365579302587360e+00,0.000000000000000000e+00
9.250000000000000000e+02,2.109111361079865077e+00,0.000000000000000000e+00
9.260000000000000000e+02,2.113329583802024736e+00,0.000000000000000000e+00
9.270000000000000000e+02,2.130202474690663816e+00,0.000000000000000000e+00
9.280000000000000000e+02,2.218082114735658195e+00,0.000000000000000000e+00
9.290000000000000000e+02,2.303149606299212504e+00,0.000000000000000000e+00
9.300000000000000000e+02,2.316507311586051721e+00,0.000000000000000000e+00
9.310000000000000000e+02,2.369938132733408143e+00,0.000000000000000000e+00
9.320000000000000000e+02,2.407902137232845963e+00,0.000000000000000000e+00
9.330000000000000000e+02,2.398762654668166405e+00,0.000000000000000000e+00
9.340000000000000000e+02,2.401574803149606474e+00,0.000000000000000000e+00
9.350000000000000000e+02,2.408605174353205758e+00,0.000000000000000000e+00
9.360000000000000000e+02,2.400871766029246235e+00,0.000000000000000000e+00
9.370000000000000000e+02,2.367125984251968518e+00,0.000000000000000000e+00
9.380000000000000000e+02,2.395247469066366541e+00,0.000000000000000000e+00
9.390000000000000000e+02,2.426181102362204633e+00,0.000000000000000000e+00
9.400000000000000000e+02,2.376265466816648075e+00,0.000000000000000000e+00
9.410000000000000000e+02,2.400871766029246235e+00,0.000000000000000000e+00
9.420000000000000000e+02,2.421962879640044974e+00,0.000000000000000000e+00
9.430000000000000000e+02,2.380483689538807734e+00,0.000000000000000000e+00
9.440000000000000000e+02,2.402980877390326064e+00,0.000000000000000000e+00
9.450000000000000000e+02,2.381889763779527769e+00,0.000000000000000000e+00
9.460000000000000000e+02,2.386107986501687428e+00,0.000000000000000000e+00
9.470000000000000000e+02,2.399465691788526645e+00,0.000000000000000000e+00
9.480000000000000000e+02,2.391029246344206882e+00,0.000000000000000000e+00
9.490000000000000000e+02,2.378374578177727905e+00,0.000000000000000000e+00
9.500000000000000000e+02,2.366422947131608723e+00,0.000000000000000000e+00
9.510000000000000000e+02,2.372750281214848211e+00,0.000000000000000000e+00
9.520000000000000000e+02,2.390326209223847087e+00,0.000000000000000000e+00
9.530000000000000000e+02,2.400871766029246235e+00,0.000000000000000000e+00
9.540000000000000000e+02,2.369938132733408143e+00,0.000000000000000000e+00
9.550000000000000000e+02,2.389623172103486848e+00,0.000000000000000000e+00
9.560000000000000000e+02,2.437429696287964020e+00,0.000000000000000000e+00
9.570000000000000000e+02,2.424071991001124804e+00,0.000000000000000000e+00
9.580000000000000000e+02,2.458520809898762760e+00,0.000000000000000000e+00
9.590000000000000000e+02,2.518278965129358671e+00,0.000000000000000000e+00
9.600000000000000000e+02,2.514060742407199012e+00,0.000000000000000000e+00
9.610000000000000000e+02,2.526012373453318194e+00,0.000000000000000000e+00
9.620000000000000000e+02,2.582958380202474480e+00,0.000000000000000000e+00
9.630000000000000000e+02,2.573115860517435127e+00,0.000000000000000000e+00
9.640000000000000000e+02,2.547806524184476729e+00,0.000000000000000000e+00
9.650000000000000000e+02,2.507030371203599728e+00,0.000000000000000000e+00
9.660000000000000000e+02,2.455005624296962896e+00,0.000000000000000000e+00
9.670000000000000000e+02,2.421962879640044974e+00,0.000000000000000000e+00
9.680000000000000000e+02,2.376265466816648075e+00,0.000000000000000000e+00
9.690000000000000000e+02,2.357283464566929165e+00,0.000000000000000000e+00
9.700000000000000000e+02,2.369938132733408143e+00,0.000000000000000000e+00
9.710000000000000000e+02,2.343222722159730154e+00,0.000000000000000000e+00
9.720000000000000000e+02,2.336895388076490221e+00,0.000000000000000000e+00
9.730000000000000000e+02,2.315804274465691925e+00,0.000000000000000000e+00
9.740000000000000000e+02,2.268700787401574992e+00,0.000000000000000000e+00
9.750000000000000000e+02,2.254640044994375536e+00,0.000000000000000000e+00
9.760000000000000000e+02,2.353065241844769506e+00,0.000000000000000000e+00
9.770000000000000000e+02,2.288385826771653697e+00,0.000000000000000000e+00
9.780000000000000000e+02,2.059195725534308075e+00,0.000000000000000000e+00
9.790000000000000000e+02,2.004358830146231618e+00,0.000000000000000000e+00
9.800000000000000000e+02,2.454302587176603101e+00,0.000000000000000000e+00
9.810000000000000000e+02,3.132030371203599728e+00,0.000000000000000000e+00
9.820000000000000000e+02,3.609392575928008995e+00,0.000000000000000000e+00
9.830000000000000000e+02,3.714145106861642454e+00,0.000000000000000000e+00
9.840000000000000000e+02,3.396372328458942658e+00,0.000000000000000000e+00
9.850000000000000000e+02,3.138357705286839217e+00,0.000000000000000000e+00
9.860000000000000000e+02,2.972440944881889813e+00,1.000000000000000000e+00
9.870000000000000000e+02,2.701771653543306950e+00,0.000000000000000000e+00
9.880000000000000000e+02,2.457114735658042726e+00,0.000000000000000000e+00
9.890000000000000000e+02,2.362907761529808859e+00,0.000000000000000000e+00
9.900000000000000000e+02,2.335489313835770631e+00,0.000000000000000000e+00
9.910000000000000000e+02,2.305258717660292334e+00,0.000000000000000000e+00
9.920000000000000000e+02,2.275028121484814481e+00,0.000000000000000000e+00
9.930000000000000000e+02,2.266591676040494718e+00,0.000000000000000000e+00
9.940000000000000000e+02,2.269403824521934787e+00,0.000000000000000000e+00
9.950000000000000000e+02,2.275028121484814481e+00,0.000000000000000000e+00
9.960000000000000000e+02,2.303852643419572743e+00,0.000000000000000000e+00
9.970000000000000000e+02,2.310883014623172027e+00,0.000000000000000000e+00
9.980000000000000000e+02,2.276434195725534515e+00,0.000000000000000000e+00
9.990000000000000000e+02,2.254640044994375536e+00,0.000000000000000000e+00
1.000000000000000000e+03,2.283464566929133799e+00,0.000000000000000000e+00
1.001000000000000000e+03,2.284870641169853833e+00,0.000000000000000000e+00
1.002000000000000000e+03,2.296119235095613220e+00,0.000000000000000000e+00
1.003000000000000000e+03,2.300337457817772879e+00,0.000000000000000000e+00
1.004000000000000000e+03,2.256749156355455366e+00,0.000000000000000000e+00
1.005000000000000000e+03,2.245500562429696423e+00,0.000000000000000000e+00
1.006000000000000000e+03,2.246906636670416013e+00,0.000000000000000000e+00
1.007000000000000000e+03,2.249718785151856082e+00,0.000000000000000000e+00
1.008000000000000000e+03,2.236361079865016865e+00,0.000000000000000000e+00
1.009000000000000000e+03,2.220191226096738024e+00,0.000000000000000000e+00
1.010000000000000000e+03,2.180821147356580614e+00,0.000000000000000000e+00
1.011000000000000000e+03,2.128796400449943782e+00,0.000000000000000000e+00
1.012000000000000000e+03,2.111220472440944906e+00,0.000000000000000000e+00
1.013000000000000000e+03,2.121062992125984259e+00,0.000000000000000000e+00
1.014000000000000000e+03,2.087317210348706542e+00,0.000000000000000000e+00
1.015000000000000000e+03,2.072553430821147291e+00,0.000000000000000000e+00
1.016000000000000000e+03,2.096456692913385655e+00,0.000000000000000000e+00
1.017000000000000000e+03,2.097862767154105690e+00,0.000000000000000000e+00
1.018000000000000000e+03,2.133014623172103441e+00,0.000000000000000000e+00
1.019000000000000000e+03,2.212457817772778501e+00,0.000000000000000000e+00
1.020000000000000000e+03,2.235658042744657070e+00,0.000000000000000000e+00
1.021000000000000000e+03,2.266591676040494718e+00,0.000000000000000000e+00
1.022000000000000000e+03,2.331974128233970767e+00,0.000000000000000000e+00
1.023000000000000000e+03,2.340410573678290085e+00,0.000000000000000000e+00
1.024000000000000000e+03,2.368532058492688552e+00,0.000000000000000000e+00
1.025000000000000000e+03,2.374156355455568246e+00,0.000000000000000000e+00
1.026000000000000000e+03,2.341816647919010119e+00,0.000000000000000000e+00
1.027000000000000000e+03,2.341816647919010119e+00,0.000000000000000000e+00
1.028000000000000000e+03,2.354471316085489097e+00,0.000000000000000000e+00
1.029000000000000000e+03,2.360095613048368790e+00,0.000000000000000000e+00
1.030000000000000000e+03,2.396653543307086576e+00,0.000000000000000000e+00
1.031000000000000000e+03,2.467660292463441873e+00,0.000000000000000000e+00
1.032000000000000000e+03,2.492266591676040477e+00,0.000000000000000000e+00
1.033000000000000000e+03,2.350956130483689677e+00,0.000000000000000000e+00
1.034000000000000000e+03,1.977643419572553407e+00,0.000000000000000000e+00
1.035000000000000000e+03,1.381467941507311670e+00,0.000000000000000000e+00
1.036000000000000000e+03,8.323959505061867548e-01,0.000000000000000000e+00
1.037000000000000000e+03,4.569741282339707666e-01,0.000000000000000000e+00
1.038000000000000000e+03,5.849268841394825724e-01,0.000000000000000000e+00
1.039000000000000000e+03,1.186023622047243986e+00,0.000000000000000000e+00
1.040000000000000000e+03,1.734392575928008995e+00,0.000000000000000000e+00
1.041000000000000000e+03,1.930539932508436474e+00,0.000000000000000000e+00
1.042000000000000000e+03,1.832817772778402743e+00,0.000000000000000000e+00
1.043000000000000000e+03,1.763217097862767258e+00,0.000000000000000000e+00
1.044000000000000000e+03,1.785714285714285809e+00,0.000000000000000000e+00
1.045000000000000000e+03,1.840551181102362266e+00,0.000000000000000000e+00
1.046000000000000000e+03,1.948818897637795367e+00,0.000000000000000000e+00
1.047000000000000000e+03,2.128093363329583987e+00,0.000000000000000000e+00
1.048000000000000000e+03,2.372750281214848211e+00,0.000000000000000000e+00
1.049000000000000000e+03,2.510545556805399148e+00,0.000000000000000000e+00
1.050000000000000000e+03,2.529527559055118058e+00,0.000000000000000000e+00
1.051000000000000000e+03,2.524606299212598604e+00,0.000000000000000000e+00
1.052000000000000000e+03,2.554133858267716661e+00,0.000000000000000000e+00
1.053000000000000000e+03,2.580146231721034855e+00,0.000000000000000000e+00
1.054000000000000000e+03,2.609673790776152913e+00,0.000000000000000000e+00
1.055000000000000000e+03,2.611782902137232742e+00,0.000000000000000000e+00
1.056000000000000000e+03,2.618110236220472231e+00,0.000000000000000000e+00
1.057000000000000000e+03,2.674353205849268722e+00,0.000000000000000000e+00
1.058000000000000000e+03,2.735517435320585111e+00,0.000000000000000000e+00
1.059000000000000000e+03,2.759420697412823476e+00,0.000000000000000000e+00
1.060000000000000000e+03,2.800899887514060715e+00,0.000000000000000000e+00
1.061000000000000000e+03,2.888779527559055094e+00,0.000000000000000000e+00
1.062000000000000000e+03,2.934476940382451993e+00,0.000000000000000000e+00
1.063000000000000000e+03,2.957677165354330562e+00,0.000000000000000000e+00
1.064000000000000000e+03,3.047665916760404770e+00,0.000000000000000000e+00
1.065000000000000000e+03,3.172806524184476729e+00,0.000000000000000000e+00
1.066000000000000000e+03,3.276152980877390153e+00,0.000000000000000000e+00
1.067000000000000000e+03,3.295838020247468858e+00,0.000000000000000000e+00
1.068000000000000000e+03,3.323959505061867326e+00,0.000000000000000000e+00
1.069000000000000000e+03,3.339426321709786372e+00,0.000000000000000000e+00
1.070000000000000000e+03,3.269122609673790869e+00,0.000000000000000000e+00
1.071000000000000000e+03,3.191085489313835843e+00,0.000000000000000000e+00
1.072000000000000000e+03,3.132030371203599728e+00,0.000000000000000000e+00
1.073000000000000000e+03,3.036417322834645827e+00,0.000000000000000000e+00
1.074000000000000000e+03,2.898622047244094446e+00,0.000000000000000000e+00
1.075000000000000000e+03,2.780511811023622215e+00,0.000000000000000000e+00
1.076000000000000000e+03,2.718644544431946031e+00,0.000000000000000000e+00
1.077000000000000000e+03,2.637092238470191141e+00,0.000000000000000000e+00
1.078000000000000000e+03,2.550618672665916797e+00,0.000000000000000000e+00
1.079000000000000000e+03,2.462035995500562624e+00,0.000000000000000000e+00
1.080000000000000000e+03,2.370641169853768382e+00,0.000000000000000000e+00
1.081000000000000000e+03,2.341816647919010119e+00,0.000000000000000000e+00
1.082000000000000000e+03,2.391732283464567121e+00,0.000000000000000000e+00
1.083000000000000000e+03,2.419150731158605350e+00,0.000000000000000000e+00
1.084000000000000000e+03,2.421259842519685179e+00,0.000000000000000000e+00
1.085000000000000000e+03,2.366422947131608723e+00,0.000000000000000000e+00
1.086000000000000000e+03,2.354471316085489097e+00,0.000000000000000000e+00
1.087000000000000000e+03,2.340410573678290085e+00,0.000000000000000000e+00
1.088000000000000000e+03,2.344628796400449744e+00,0.000000000000000000e+00
1.089000000000000000e+03,2.376968503937007871e+00,0.000000000000000000e+00
1.090000000000000000e+03,2.357986501687288960e+00,0.000000000000000000e+00
1.091000000000000000e+03,2.303149606299212504e+00,0.000000000000000000e+00
1.092000000000000000e+03,2.312289088863892061e+00,0.000000000000000000e+00
1.093000000000000000e+03,2.344628796400449744e+00,0.000000000000000000e+00
1.094000000000000000e+03,2.348143982002249608e+00,0.000000000000000000e+00
1.095000000000000000e+03,2.322834645669291209e+00,0.000000000000000000e+00
1.096000000000000000e+03,2.313695163104612096e+00,0.000000000000000000e+00
1.097000000000000000e+03,2.325646794150731278e+00,0.000000000000000000e+00
1.098000000000000000e+03,2.302446569178852709e+00,0.000000000000000000e+00
1.099000000000000000e+03,2.316507311586051721e+00,0.000000000000000000e+00
1.100000000000000000e+03,2.380483689538807734e+00,0.000000000000000000e+00
1.101000000000000000e+03,2.360095613048368790e+00,0.000000000000000000e+00
1.102000000000000000e+03,2.315101237345331686e+00,0.000000000000000000e+00
1.103000000000000000e+03,2.322131608548931414e+00,0.000000000000000000e+00
1.104000000000000000e+03,2.317913385826771755e+00,0.000000000000000000e+00
1.105000000000000000e+03,2.339004499437570495e+00,0.000000000000000000e+00
1.106000000000000000e+03,2.337598425196850460e+00,0.000000000000000000e+00
1.107000000000000000e+03,2.299634420697412640e+00,0.000000000000000000e+00
1.108000000000000000e+03,2.334083239595050596e+00,0.000000000000000000e+00
1.109000000000000000e+03,2.373453318335208007e+00,0.000000000000000000e+00
1.110000000000000000e+03,2.367125984251968518e+00,0.000000000000000000e+00
1.111000000000000000e+03,2.357283464566929165e+00,0.000000000000000000e+00
1.112000000000000000e+03,2.356580427446569370e+00,0.000000000000000000e+00
1.113000000000000000e+03,2.361501687289088824e+00,0.000000000000000000e+00
1.114000000000000000e+03,2.312289088863892061e+00,0.000000000000000000e+00
1.115000000000000000e+03,2.265185601799775128e+00,0.000000000000000000e+00
1.116000000000000000e+03,2.317913385826771755e+00,0.000000000000000000e+00
1.117000000000000000e+03,2.362204724409448620e+00,0.000000000000000000e+00
1.118000000000000000e+03,2.382592800899887564e+00,0.000000000000000000e+00
1.119000000000000000e+03,2.353768278965129301e+00,0.000000000000000000e+00
1.120000000000000000e+03,2.337598425196850460e+00,0.000000000000000000e+00
1.121000000000000000e+03,2.365016872890888688e+00,0.000000000000000000e+00
1.122000000000000000e+03,2.333380202474690801e+00,0.000000000000000000e+00
1.123000000000000000e+03,2.315101237345331686e+00,0.000000000000000000e+00
1.124000000000000000e+03,2.382592800899887564e+00,0.000000000000000000e+00
1.125000000000000000e+03,2.405089988751405894e+00,0.000000000000000000e+00
1.126000000000000000e+03,2.351659167604049472e+00,0.000000000000000000e+00
1.127000000000000000e+03,2.329161979752531142e+00,0.000000000000000000e+00
1.128000000000000000e+03,2.367829021372328313e+00,0.000000000000000000e+00
1.129000000000000000e+03,2.333380202474690801e+00,0.000000000000000000e+00
1.130000000000000000e+03,2.321428571428571619e+00,0.000000000000000000e+00
1.131000000000000000e+03,2.363610798650168654e+00,0.000000000000000000e+00
1.132000000000000000e+03,2.358689538807649200e+00,0.000000000000000000e+00
1.133000000000000000e+03,2.376968503937007871e+00,0.000000000000000000e+00
1.134000000000000000e+03,2.369235095613048347e+00,0.000000000000000000e+00
1.135000000000000000e+03,2.341113610798650324e+00,0.000000000000000000e+00
1.136000000000000000e+03,2.335489313835770631e+00,0.000000000000000000e+00
1.137000000000000000e+03,2.353065241844769506e+00,0.000000000000000000e+00
1.138000000000000000e+03,2.421259842519685179e+00,0.000000000000000000e+00
1.139000000000000000e+03,2.464848143982002249e+00,0.000000000000000000e+00
1.140000000000000000e+03,2.450787401574803237e+00,0.000000000000000000e+00
1.141000000000000000e+03,2.451490438695163032e+00,0.000000000000000000e+00
1.142000000000000000e+03,2.444460067491563748e+00,0.000000000000000000e+00
1.143000000000000000e+03,2.465551181102362044e+00,0.000000000000000000e+00
1.144000000000000000e+03,2.517575928008998876e+00,0.000000000000000000e+00
1.145000000000000000e+03,2.514763779527559251e+00,0.000000000000000000e+00
1.146000000000000000e+03,2.513357705286839217e+00,0.000000000000000000e+00
1.147000000000000000e+03,2.561867266591676184e+00,0.000000000000000000e+00
1.148000000000000000e+03,2.584364454443194514e+00,0.000000000000000000e+00
1.149000000000000000e+03,2.448678290213723407e+00,0.000000000000000000e+00
1.150000000000000000e+03,2.389623172103486848e+00,0.000000000000000000e+00
1.151000000000000000e+03,2.438835770528684055e+00,0.000000000000000000e+00
1.152000000000000000e+03,2.405793025871766133e+00,0.000000000000000000e+00
1.153000000000000000e+03,2.357986501687288960e+00,0.000000000000000000e+00
1.154000000000000000e+03,2.386107986501687428e+00,0.000000000000000000e+00
1.155000000000000000e+03,2.447272215973003373e+00,0.000000000000000000e+00
1.156000000000000000e+03,2.428993250843644702e+00,0.000000000000000000e+00
1.157000000000000000e+03,2.406496062992125928e+00,0.000000000000000000e+00
1.158000000000000000e+03,2.410714285714285587e+00,0.000000000000000000e+00
1.159000000000000000e+03,2.477502812148481226e+00,0.000000000000000000e+00
1.160000000000000000e+03,2.362204724409448620e+00,0.000000000000000000e+00
1.161000000000000000e+03,2.126687289088863952e+00,0.000000000000000000e+00
1.162000000000000000e+03,2.182227221597300204e+00,0.000000000000000000e+00
1.163000000000000000e+03,2.812148481439820102e+00,0.000000000000000000e+00
1.164000000000000000e+03,3.647356580427446371e+00,0.000000000000000000e+00
1.165000000000000000e+03,4.169010123734532947e+00,0.000000000000000000e+00
1.166000000000000000e+03,3.960911136107986508e+00,0.000000000000000000e+00
1.167000000000000000e+03,3.345050618672666065e+00,0.000000000000000000e+00
1.168000000000000000e+03,2.973847019122609847e+00,0.000000000000000000e+00
1.169000000000000000e+03,2.748172103487064089e+00,1.000000000000000000e+00
1.170000000000000000e+03,2.541479190101237240e+00,0.000000000000000000e+00
1.171000000000000000e+03,2.420556805399324940e+00,0.000000000000000000e+00
1.172000000000000000e+03,2.413526434195725656e+00,0.000000000000000000e+00
1.173000000000000000e+03,2.353065241844769506e+00,0.000000000000000000e+00
1.174000000000000000e+03,2.349550056242969642e+00,0.000000000000000000e+00
1.175000000000000000e+03,2.346034870641169778e+00,0.000000000000000000e+00
1.176000000000000000e+03,2.341816647919010119e+00,0.000000000000000000e+00
1.177000000000000000e+03,2.346737907761530018e+00,0.000000000000000000e+00
1.178000000000000000e+03,2.307367829021372163e+00,0.000000000000000000e+00
1.179000000000000000e+03,2.349550056242969642e+00,0.000000000000000000e+00
1.180000000000000000e+03,2.336895388076490221e+00,0.000000000000000000e+00
1.181000000000000000e+03,2.243391451068616593e+00,0.000000000000000000e+00
1.182000000000000000e+03,2.220894263217097819e+00,0.000000000000000000e+00
1.183000000000000000e+03,2.288385826771653697e+00,0.000000000000000000e+00
1.184000000000000000e+03,2.270106861642294582e+00,0.000000000000000000e+00
1.185000000000000000e+03,2.224409448818897683e+00,0.000000000000000000e+00
1.186000000000000000e+03,2.252530933633295707e+00,0.000000000000000000e+00
1.187000000000000000e+03,2.267294713160854958e+00,0.000000000000000000e+00
1.188000000000000000e+03,2.226518560179977513e+00,0.000000000000000000e+00
1.189000000000000000e+03,2.229330708661417138e+00,0.000000000000000000e+00
1.190000000000000000e+03,2.249015748031495843e+00,0.000000000000000000e+00
1.191000000000000000e+03,2.215269966254218126e+00,0.000000000000000000e+00
1.192000000000000000e+03,2.193475815523059591e+00,0.000000000000000000e+00
1.193000000000000000e+03,2.204724409448818978e+00,0.000000000000000000e+00
1.194000000000000000e+03,2.180821147356580614e+00,0.000000000000000000e+00
1.195000000000000000e+03,2.125984251968504157e+00,0.000000000000000000e+00
1.196000000000000000e+03,2.113329583802024736e+00,0.000000000000000000e+00
1.197000000000000000e+03,2.089426321709786372e+00,0.000000000000000000e+00
1.198000000000000000e+03,2.073959505061867326e+00,0.000000000000000000e+00
1.199000000000000000e+03,2.092238470191225996e+00,0.000000000000000000e+00
1.200000000000000000e+03,2.080989876265466609e+00,0.000000000000000000e+00
1.201000000000000000e+03,2.072553430821147291e+00,0.000000000000000000e+00
1.202000000000000000e+03,2.113329583802024736e+00,0.000000000000000000e+00
1.203000000000000000e+03,2.191366704161979762e+00,0.000000000000000000e+00
1.204000000000000000e+03,2.230736782902137172e+00,0.000000000000000000e+00
1.205000000000000000e+03,2.248312710911136048e+00,0.000000000000000000e+00
1.206000000000000000e+03,2.310883014623172027e+00,0.000000000000000000e+00
1.207000000000000000e+03,2.348143982002249608e+00,0.000000000000000000e+00
1.208000000000000000e+03,2.310179977502812232e+00,0.000000000000000000e+00
1.209000000000000000e+03,2.263076490438695298e+00,0.000000000000000000e+00
1.210000000000000000e+03,2.286979752530933663e+00,0.000000000000000000e+00
1.211000000000000000e+03,2.241985376827896559e+00,0.000000000000000000e+00
1.212000000000000000e+03,2.245500562429696423e+00,0.000000000000000000e+00
1.213000000000000000e+03,2.294010123734533391e+00,0.000000000000000000e+00
1.214000000000000000e+03,2.253233970753655946e+00,0.000000000000000000e+00
1.215000000000000000e+03,2.163948256467941533e+00,0.000000000000000000e+00
1.216000000000000000e+03,2.178712035995500784e+00,0.000000000000000000e+00
1.217000000000000000e+03,2.225815523059617718e+00,0.000000000000000000e+00
1.218000000000000000e+03,2.193475815523059591e+00,0.000000000000000000e+00
1.219000000000000000e+03,2.166057367829021363e+00,0.000000000000000000e+00
1.220000000000000000e+03,2.151293588301462112e+00,0.000000000000000000e+00
1.221000000000000000e+03,2.128796400449943782e+00,0.000000000000000000e+00
1.222000000000000000e+03,2.132311586051743646e+00,0.000000000000000000e+00
1.223000000000000000e+03,2.117547806524184395e+00,0.000000000000000000e+00
1.224000000000000000e+03,2.052165354330708791e+00,0.000000000000000000e+00
1.225000000000000000e+03,2.021231721034870699e+00,0.000000000000000000e+00
1.226000000000000000e+03,2.024746906636670563e+00,0.000000000000000000e+00
1.227000000000000000e+03,2.019122609673790869e+00,0.000000000000000000e+00
1.228000000000000000e+03,2.067632170978627837e+00,0.000000000000000000e+00
1.229000000000000000e+03,2.109814398200224872e+00,0.000000000000000000e+00
1.230000000000000000e+03,2.092941507311586236e+00,0.000000000000000000e+00
1.231000000000000000e+03,2.051462317210348552e+00,0.000000000000000000e+00
1.232000000000000000e+03,2.057086614173228245e+00,0.000000000000000000e+00
1.233000000000000000e+03,2.064820022497187768e+00,0.000000000000000000e+00
1.234000000000000000e+03,2.080989876265466609e+00,0.000000000000000000e+00
1.235000000000000000e+03,2.142857142857142794e+00,0.000000000000000000e+00
1.236000000000000000e+03,2.187148481439820102e+00,0.000000000000000000e+00
1.237000000000000000e+03,2.178008998875140545e+00,0.000000000000000000e+00
1.238000000000000000e+03,2.133014623172103441e+00,0.000000000000000000e+00
1.239000000000000000e+03,2.140748031496062964e+00,0.000000000000000000e+00
1.240000000000000000e+03,2.135826771653543510e+00,0.000000000000000000e+00
1.241000000000000000e+03,2.052165354330708791e+00,0.000000000000000000e+00
1.242000000000000000e+03,1.966394825646794242e+00,0.000000000000000000e+00
1.243000000000000000e+03,1.985376827896512930e+00,0.000000000000000000e+00
1.244000000000000000e+03,1.995219347581552283e+00,0.000000000000000000e+00
1.245000000000000000e+03,1.955146231721034855e+00,0.000000000000000000e+00
1.246000000000000000e+03,1.949521934758155162e+00,0.000000000000000000e+00
1.247000000000000000e+03,1.957255343082114685e+00,0.000000000000000000e+00
1.248000000000000000e+03,1.931242969628796491e+00,0.000000000000000000e+00
1.249000000000000000e+03,1.952334083239595008e+00,0.000000000000000000e+00
1.250000000000000000e+03,2.006467941507311448e+00,0.000000000000000000e+00
1.251000000000000000e+03,1.924212598425196763e+00,0.000000000000000000e+00
1.252000000000000000e+03,1.698537682789651226e+00,0.000000000000000000e+00
1.253000000000000000e+03,1.622609673790776252e+00,0.000000000000000000e+00
1.254000000000000000e+03,2.058492688413948279e+00,0.000000000000000000e+00
1.255000000000000000e+03,2.919713160854893186e+00,0.000000000000000000e+00
1.256000000000000000e+03,3.568616422947131550e+00,0.000000000000000000e+00
1.257000000000000000e+03,3.591113610798650324e+00,0.000000000000000000e+00
1.258000000000000000e+03,3.127109111361079830e+00,0.000000000000000000e+00
1.259000000000000000e+03,2.689820022497187768e+00,0.000000000000000000e+00
1.260000000000000000e+03,2.410011248593925792e+00,1.000000000000000000e+00
1.261000000000000000e+03,2.163948256467941533e+00,0.000000000000000000e+00
1.262000000000000000e+03,1.990298087739032606e+00,0.000000000000000000e+00
1.263000000000000000e+03,1.946006749156355520e+00,0.000000000000000000e+00
1.264000000000000000e+03,1.961473565804274566e+00,0.000000000000000000e+00
1.265000000000000000e+03,1.935461192350956150e+00,0.000000000000000000e+00
1.266000000000000000e+03,1.889060742407199012e+00,0.000000000000000000e+00
1.267000000000000000e+03,1.917885264341957274e+00,0.000000000000000000e+00
1.268000000000000000e+03,1.957255343082114685e+00,0.000000000000000000e+00
1.269000000000000000e+03,1.917182227221597257e+00,0.000000000000000000e+00
1.270000000000000000e+03,1.946709786276715315e+00,0.000000000000000000e+00
1.271000000000000000e+03,1.971316085489313918e+00,0.000000000000000000e+00
1.272000000000000000e+03,1.933352080989876320e+00,0.000000000000000000e+00
1.273000000000000000e+03,1.900309336332958399e+00,0.000000000000000000e+00
1.274000000000000000e+03,1.910151856017997751e+00,0.000000000000000000e+00
1.275000000000000000e+03,1.927024746906636610e+00,0.000000000000000000e+00
1.276000000000000000e+03,1.909448818897637734e+00,0.000000000000000000e+00
1.277000000000000000e+03,1.878515185601799864e+00,0.000000000000000000e+00
1.278000000000000000e+03,1.888357705286839217e+00,0.000000000000000000e+00
1.279000000000000000e+03,1.914370078740157410e+00,0.000000000000000000e+00
1.280000000000000000e+03,1.894685039370078705e+00,0.000000000000000000e+00
1.281000000000000000e+03,1.846175478065241737e+00,0.000000000000000000e+00
1.282000000000000000e+03,1.818053993250843714e+00,0.000000000000000000e+00
1.283000000000000000e+03,1.794853768278965145e+00,0.000000000000000000e+00
1.284000000000000000e+03,1.763217097862767258e+00,0.000000000000000000e+00
1.285000000000000000e+03,1.708380202474690579e+00,0.000000000000000000e+00
1.286000000000000000e+03,1.702052868391451090e+00,0.000000000000000000e+00
1.287000000000000000e+03,1.674634420697412862e+00,0.000000000000000000e+00
1.288000000000000000e+03,1.627530933633295929e+00,0.000000000000000000e+00
1.289000000000000000e+03,1.647919010123734429e+00,0.000000000000000000e+00
1.290000000000000000e+03,1.690804274465691703e+00,0.000000000000000000e+00
1.291000000000000000e+03,1.646512935883014617e+00,0.000000000000000000e+00
1.292000000000000000e+03,1.655652418447693952e+00,0.000000000000000000e+00
1.293000000000000000e+03,1.725253093363329659e+00,0.000000000000000000e+00
1.294000000000000000e+03,1.792744656917885315e+00,0.000000000000000000e+00
1.295000000000000000e+03,1.837739032620922419e+00,0.000000000000000000e+00
1.296000000000000000e+03,1.893982002249718688e+00,0.000000000000000000e+00
1.297000000000000000e+03,1.923509561304836968e+00,0.000000000000000000e+00
1.298000000000000000e+03,1.925618672665916797e+00,0.000000000000000000e+00
1.299000000000000000e+03,1.917885264341957274e+00,0.000000000000000000e+00
1.300000000000000000e+03,1.925618672665916797e+00,0.000000000000000000e+00
1.301000000000000000e+03,1.941788526434195639e+00,0.000000000000000000e+00
1.302000000000000000e+03,1.924212598425196763e+00,0.000000000000000000e+00
1.303000000000000000e+03,1.919291338582677087e+00,0.000000000000000000e+00
1.304000000000000000e+03,1.877812148481439847e+00,0.000000000000000000e+00
1.305000000000000000e+03,1.872187851518560153e+00,0.000000000000000000e+00
1.306000000000000000e+03,1.912964004499437598e+00,0.000000000000000000e+00
1.307000000000000000e+03,1.908745781777277939e+00,0.000000000000000000e+00
1.308000000000000000e+03,1.898200224971878569e+00,0.000000000000000000e+00
1.309000000000000000e+03,1.889763779527559029e+00,0.000000000000000000e+00
1.310000000000000000e+03,1.848987626546681584e+00,0.000000000000000000e+00
1.311000000000000000e+03,1.851799775028121431e+00,0.000000000000000000e+00
1.312000000000000000e+03,1.891169853768279063e+00,0.000000000000000000e+00
1.313000000000000000e+03,1.844769403824521925e+00,0.000000000000000000e+00
1.314000000000000000e+03,1.816647919010123680e+00,0.000000000000000000e+00
1.315000000000000000e+03,1.832817772778402743e+00,0.000000000000000000e+00
1.316000000000000000e+03,1.864454443194600630e+00,0.000000000000000000e+00
1.317000000000000000e+03,1.906636670416197887e+00,0.000000000000000000e+00
1.318000000000000000e+03,1.909448818897637734e+00,0.000000000000000000e+00
1.319000000000000000e+03,1.890466816647919046e+00,0.000000000000000000e+00
1.320000000000000000e+03,1.896794150731158535e+00,0.000000000000000000e+00
1.321000000000000000e+03,1.879218222722159659e+00,0.000000000000000000e+00
1.322000000000000000e+03,1.929836895388076456e+00,0.000000000000000000e+00
1.323000000000000000e+03,1.979049493813273441e+00,0.000000000000000000e+00
1.324000000000000000e+03,1.955849268841394872e+00,0.000000000000000000e+00
1.325000000000000000e+03,1.959364454443194514e+00,0.000000000000000000e+00
1.326000000000000000e+03,2.022637795275590733e+00,0.000000000000000000e+00
1.327000000000000000e+03,2.011389201349831346e+00,0.000000000000000000e+00
1.328000000000000000e+03,2.015607424071991005e+00,0.000000000000000000e+00
1.329000000000000000e+03,2.047947131608549132e+00,0.000000000000000000e+00
1.330000000000000000e+03,2.019122609673790869e+00,0.000000000000000000e+00
1.331000000000000000e+03,1.998031496062992129e+00,0.000000000000000000e+00
1.332000000000000000e+03,1.953037120359955026e+00,0.000000000000000000e+00
1.333000000000000000e+03,1.877109111361079830e+00,0.000000000000000000e+00
1.334000000000000000e+03,1.845472440944881942e+00,0.000000000000000000e+00
1.335000000000000000e+03,1.818053993250843714e+00,0.000000000000000000e+00
1.336000000000000000e+03,1.794853768278965145e+00,0.000000000000000000e+00
1.337000000000000000e+03,1.796259842519684957e+00,0.000000000000000000e+00
1.338000000000000000e+03,1.795556805399325162e+00,0.000000000000000000e+00
1.339000000000000000e+03,1.795556805399325162e+00,0.000000000000000000e+00
1.340000000000000000e+03,1.830708661417322913e+00,0.000000000000000000e+00
1.341000000000000000e+03,1.820866141732283561e+00,0.000000000000000000e+00
1.342000000000000000e+03,1.724550056242969642e+00,0.000000000000000000e+00
1.343000000000000000e+03,1.544572553430821227e+00,0.000000000000000000e+00
1.344000000000000000e+03,1.483408323959505060e+00,0.000000000000000000e+00
1.345000000000000000e+03,1.957958380202474702e+00,0.000000000000000000e+00
1.346000000000000000e+03,2.748172103487064089e+00,0.000000000000000000e+00
1.347000000000000000e+03,3.403402699662542386e+00,0.000000000000000000e+00
1.348000000000000000e+03,3.473706411698537888e+00,0.000000000000000000e+00
1.349000000000000000e+03,2.957677165354330562e+00,0.000000000000000000e+00
1.350000000000000000e+03,2.615298087739032606e+00,0.000000000000000000e+00
1.351000000000000000e+03,2.376265466816648075e+00,1.000000000000000000e+00
1.352000000000000000e+03,2.099971878515185519e+00,0.000000000000000000e+00
1.353000000000000000e+03,1.907339707536557905e+00,0.000000000000000000e+00
1.354000000000000000e+03,1.817350956130483697e+00,0.000000000000000000e+00
1.355000000000000000e+03,1.781496062992125928e+00,0.000000000000000000e+00
1.356000000000000000e+03,1.789932508436445469e+00,0.000000000000000000e+00
1.357000000000000000e+03,1.802587176602924668e+00,0.000000000000000000e+00
1.358000000000000000e+03,1.808211473565804361e+00,0.000000000000000000e+00
1.359000000000000000e+03,1.807508436445444344e+00,0.000000000000000000e+00
1.360000000000000000e+03,1.790635545556805486e+00,0.000000000000000000e+00
1.361000000000000000e+03,1.799775028121484821e+00,0.000000000000000000e+00
1.362000000000000000e+03,1.807508436445444344e+00,0.000000000000000000e+00
1.363000000000000000e+03,1.758295838020247359e+00,0.000000000000000000e+00
1.364000000000000000e+03,1.702755905511811108e+00,0.000000000000000000e+00
1.365000000000000000e+03,1.735095613048369012e+00,0.000000000000000000e+00
1.366000000000000000e+03,1.760404949381327411e+00,0.000000000000000000e+00
1.367000000000000000e+03,1.733689538807648978e+00,0.000000000000000000e+00
1.368000000000000000e+03,1.731580427446569148e+00,0.000000000000000000e+00
1.369000000000000000e+03,1.728768278965129301e+00,0.000000000000000000e+00
1.370000000000000000e+03,1.708380202474690579e+00,0.000000000000000000e+00
1.371000000000000000e+03,1.687992125984252079e+00,0.000000000000000000e+00
1.372000000000000000e+03,1.694319460067491567e+00,0.000000000000000000e+00
1.373000000000000000e+03,1.670416197975253203e+00,0.000000000000000000e+00
1.374000000000000000e+03,1.662682789651293680e+00,0.000000000000000000e+00
1.375000000000000000e+03,1.654949381327334157e+00,0.000000000000000000e+00
1.376000000000000000e+03,1.617688413948256576e+00,0.000000000000000000e+00
1.377000000000000000e+03,1.592379077615298177e+00,0.000000000000000000e+00
1.378000000000000000e+03,1.605033745781777377e+00,0.000000000000000000e+00
1.379000000000000000e+03,1.590973003374578143e+00,0.000000000000000000e+00
1.380000000000000000e+03,1.557227221597300426e+00,0.000000000000000000e+00
1.381000000000000000e+03,1.508014623172103441e+00,0.000000000000000000e+00
1.382000000000000000e+03,1.551602924634420733e+00,0.000000000000000000e+00
1.383000000000000000e+03,1.707677165354330784e+00,0.000000000000000000e+00
1.384000000000000000e+03,1.723847019122609625e+00,0.000000000000000000e+00
1.385000000000000000e+03,1.813835770528683833e+00,0.000000000000000000e+00
1.386000000000000000e+03,1.889763779527559029e+00,0.000000000000000000e+00
1.387000000000000000e+03,1.867266591676040477e+00,0.000000000000000000e+00
1.388000000000000000e+03,1.873593925759280188e+00,0.000000000000000000e+00
1.389000000000000000e+03,1.896091113610798740e+00,0.000000000000000000e+00
1.390000000000000000e+03,1.929836895388076456e+00,0.000000000000000000e+00
1.391000000000000000e+03,1.939679415073115809e+00,0.000000000000000000e+00
1.392000000000000000e+03,1.929133858267716439e+00,0.000000000000000000e+00
1.393000000000000000e+03,1.928430821147356644e+00,0.000000000000000000e+00
1.394000000000000000e+03,1.948818897637795367e+00,0.000000000000000000e+00
1.395000000000000000e+03,1.945303712035995503e+00,0.000000000000000000e+00
1.396000000000000000e+03,1.943194600674915673e+00,0.000000000000000000e+00
1.397000000000000000e+03,1.963582677165354395e+00,0.000000000000000000e+00
1.398000000000000000e+03,2.054274465691788620e+00,0.000000000000000000e+00
1.399000000000000000e+03,2.125984251968504157e+00,0.000000000000000000e+00
1.400000000000000000e+03,2.038104611923509779e+00,0.000000000000000000e+00
1.401000000000000000e+03,1.716113610798650102e+00,0.000000000000000000e+00
1.402000000000000000e+03,1.110095613048369012e+00,0.000000000000000000e+00
1.403000000000000000e+03,4.675196850393700809e-01,0.000000000000000000e+00
1.404000000000000000e+03,1.124859392575927944e-02,0.000000000000000000e+00
1.405000000000000000e+03,0.000000000000000000e+00,0.000000000000000000e+00
1.406000000000000000e+03,5.568053993250843270e-01,0.000000000000000000e+00
1.407000000000000000e+03,1.214145106861642232e+00,0.000000000000000000e+00
1.408000000000000000e+03,1.506608548931383629e+00,0.000000000000000000e+00
1.409000000000000000e+03,1.468644544431946031e+00,0.000000000000000000e+00
1.410000000000000000e+03,1.472159730033745673e+00,0.000000000000000000e+00
1.411000000000000000e+03,1.545978627671541039e+00,0.000000000000000000e+00
1.412000000000000000e+03,1.535433070866141669e+00,0.000000000000000000e+00
1.413000000000000000e+03,1.605736782902137172e+00,0.000000000000000000e+00
1.414000000000000000e+03,1.759701912260967394e+00,0.000000000000000000e+00
1.415000000000000000e+03,2.007874015748031482e+00,0.000000000000000000e+00
1.416000000000000000e+03,2.170275590551181022e+00,0.000000000000000000e+00
1.417000000000000000e+03,2.176602924634420511e+00,0.000000000000000000e+00
1.418000000000000000e+03,2.213863892013498091e+00,0.000000000000000000e+00
1.419000000000000000e+03,2.323537682789651448e+00,0.000000000000000000e+00
1.420000000000000000e+03,2.327052868391450868e+00,0.000000000000000000e+00
1.421000000000000000e+03,2.331974128233970767e+00,0.000000000000000000e+00
1.422000000000000000e+03,2.327755905511811108e+00,0.000000000000000000e+00
1.423000000000000000e+03,2.283464566929133799e+00,0.000000000000000000e+00
1.424000000000000000e+03,2.318616422947131550e+00,0.000000000000000000e+00
1.425000000000000000e+03,2.381186726659167530e+00,0.000000000000000000e+00
1.426000000000000000e+03,2.414932508436445247e+00,0.000000000000000000e+00
1.427000000000000000e+03,2.457114735658042726e+00,0.000000000000000000e+00
1.428000000000000000e+03,2.535854893138357546e+00,0.000000000000000000e+00
1.429000000000000000e+03,2.593503937007874072e+00,0.000000000000000000e+00
1.430000000000000000e+03,2.689820022497187768e+00,0.000000000000000000e+00
1.431000000000000000e+03,2.764341957255342930e+00,0.000000000000000000e+00
1.432000000000000000e+03,2.817772778402699796e+00,0.000000000000000000e+00
1.433000000000000000e+03,2.910573678290213628e+00,0.000000000000000000e+00
1.434000000000000000e+03,3.010404949381327189e+00,0.000000000000000000e+00
1.435000000000000000e+03,3.084223847019122555e+00,0.000000000000000000e+00
1.436000000000000000e+03,3.110939257592800988e+00,0.000000000000000000e+00
1.437000000000000000e+03,3.091254218222722283e+00,0.000000000000000000e+00
1.438000000000000000e+03,3.043447694038245110e+00,0.000000000000000000e+00
1.439000000000000000e+03,2.938695163104612096e+00,0.000000000000000000e+00
1.440000000000000000e+03,2.839566929133858331e+00,0.000000000000000000e+00
1.441000000000000000e+03,2.704583802024747019e+00,0.000000000000000000e+00
1.442000000000000000e+03,2.554133858267716661e+00,0.000000000000000000e+00
1.443000000000000000e+03,2.455708661417322691e+00,0.000000000000000000e+00
1.444000000000000000e+03,2.369938132733408143e+00,0.000000000000000000e+00
1.445000000000000000e+03,2.262373453318335059e+00,0.000000000000000000e+00
1.446000000000000000e+03,2.201912260967378909e+00,0.000000000000000000e+00
1.447000000000000000e+03,2.121766029246344054e+00,0.000000000000000000e+00
1.448000000000000000e+03,2.111220472440944906e+00,0.000000000000000000e+00
1.449000000000000000e+03,2.144966254218222623e+00,0.000000000000000000e+00
1.450000000000000000e+03,2.085208098987626713e+00,0.000000000000000000e+00
1.451000000000000000e+03,2.109814398200224872e+00,0.000000000000000000e+00
1.452000000000000000e+03,2.106299212598425008e+00,0.000000000000000000e+00
1.453000000000000000e+03,2.006467941507311448e+00,0.000000000000000000e+00
1.454000000000000000e+03,2.052165354330708791e+00,0.000000000000000000e+00
1.455000000000000000e+03,2.125281214848143918e+00,0.000000000000000000e+00
1.456000000000000000e+03,2.072553430821147291e+00,0.000000000000000000e+00
1.457000000000000000e+03,2.054274465691788620e+00,0.000000000000000000e+00
1.458000000000000000e+03,2.085911136107986508e+00,0.000000000000000000e+00
1.459000000000000000e+03,2.054977502812148416e+00,0.000000000000000000e+00
1.460000000000000000e+03,2.019825646794150664e+00,0.000000000000000000e+00
1.461000000000000000e+03,2.057789651293588484e+00,0.000000000000000000e+00
1.462000000000000000e+03,2.060601799775028109e+00,0.000000000000000000e+00
1.463000000000000000e+03,2.059898762654668314e+00,0.000000000000000000e+00
1.464000000000000000e+03,2.109814398200224872e+00,0.000000000000000000e+00
1.465000000000000000e+03,2.078880764904386780e+00,0.000000000000000000e+00
1.466000000000000000e+03,2.048650168728908927e+00,0.000000000000000000e+00
1.467000000000000000e+03,2.099268841394825724e+00,0.000000000000000000e+00
1.468000000000000000e+03,2.099268841394825724e+00,0.000000000000000000e+00
1.469000000000000000e+03,2.104190101237345178e+00,0.000000000000000000e+00
1.470000000000000000e+03,2.066226096737907802e+00,0.000000000000000000e+00
1.471000000000000000e+03,2.043728908886389029e+00,0.000000000000000000e+00
1.472000000000000000e+03,2.064820022497187768e+00,0.000000000000000000e+00
1.473000000000000000e+03,2.062007874015748143e+00,0.000000000000000000e+00
1.474000000000000000e+03,2.081692913385826849e+00,0.000000000000000000e+00
1.475000000000000000e+03,2.099971878515185519e+00,0.000000000000000000e+00
1.476000000000000000e+03,2.046541057367829097e+00,0.000000000000000000e+00
1.477000000000000000e+03,2.062007874015748143e+00,0.000000000000000000e+00
1.478000000000000000e+03,2.105596175478065213e+00,0.000000000000000000e+00
1.479000000000000000e+03,2.085208098987626713e+00,0.000000000000000000e+00
1.480000000000000000e+03,2.074662542182227121e+00,0.000000000000000000e+00
1.481000000000000000e+03,2.121766029246344054e+00,0.000000000000000000e+00
1.482000000000000000e+03,2.115438695163104565e+00,0.000000000000000000e+00
1.483000000000000000e+03,2.094347581552305826e+00,0.000000000000000000e+00
1.484000000000000000e+03,2.095050618672666065e+00,0.000000000000000000e+00
1.485000000000000000e+03,2.106299212598425008e+00,0.000000000000000000e+00
1.486000000000000000e+03,2.101377952755905554e+00,0.000000000000000000e+00
1.487000000000000000e+03,2.111923509561304702e+00,0.000000000000000000e+00
1.488000000000000000e+03,2.128093363329583987e+00,0.000000000000000000e+00
1.489000000000000000e+03,2.112626546681664941e+00,0.000000000000000000e+00
1.490000000000000000e+03,2.130202474690663816e+00,0.000000000000000000e+00
1.491000000000000000e+03,2.133014623172103441e+00,0.000000000000000000e+00
1.492000000000000000e+03,2.112626546681664941e+00,0.000000000000000000e+00
1.493000000000000000e+03,2.133014623172103441e+00,0.000000000000000000e+00
1.494000000000000000e+03,2.133717660292463236e+00,0.000000000000000000e+00
1.495000000000000000e+03,2.154808773903261976e+00,0.000000000000000000e+00
1.496000000000000000e+03,2.143560179977503033e+00,0.000000000000000000e+00
1.497000000000000000e+03,2.159730033745781874e+00,0.000000000000000000e+00
1.498000000000000000e+03,2.177305961754780750e+00,0.000000000000000000e+00
1.499000000000000000e+03,2.198397075365579489e+00,0.000000000000000000e+00
1.500000000000000000e+03,2.149887514060742522e+00,0.000000000000000000e+00
1.501000000000000000e+03,2.145669291338582862e+00,0.000000000000000000e+00
1.502000000000000000e+03,2.213160854893138296e+00,0.000000000000000000e+00
1.503000000000000000e+03,2.235658042744657070e+00,0.000000000000000000e+00
1.504000000000000000e+03,2.236361079865016865e+00,0.000000000000000000e+00
1.505000000000000000e+03,2.324240719910011244e+00,0.000000000000000000e+00
1.506000000000000000e+03,2.393841394825646951e+00,0.000000000000000000e+00
1.507000000000000000e+03,2.303149606299212504e+00,0.000000000000000000e+00
1.508000000000000000e+03,2.324240719910011244e+00,0.000000000000000000e+00
1.509000000000000000e+03,2.439538807649043850e+00,0.000000000000000000e+00
1.510000000000000000e+03,2.415635545556805486e+00,0.000000000000000000e+00
1.511000000000000000e+03,2.382592800899887564e+00,0.000000000000000000e+00
1.512000000000000000e+03,2.335489313835770631e+00,0.000000000000000000e+00
1.513000000000000000e+03,2.292604049493813356e+00,0.000000000000000000e+00
1.514000000000000000e+03,2.251827896512935911e+00,0.000000000000000000e+00
1.515000000000000000e+03,2.227924634420697547e+00,0.000000000000000000e+00
1.516000000000000000e+03,2.190663667041619966e+00,0.000000000000000000e+00
1.517000000000000000e+03,2.157620922384702045e+00,0.000000000000000000e+00
1.518000000000000000e+03,2.168869516310460988e+00,0.000000000000000000e+00
1.519000000000000000e+03,2.157620922384702045e+00,0.000000000000000000e+00
1.520000000000000000e+03,2.133014623172103441e+00,0.000000000000000000e+00
1.521000000000000000e+03,2.133014623172103441e+00,0.000000000000000000e+00
1.522000000000000000e+03,2.170275590551181022e+00,0.000000000000000000e+00
1.523000000000000000e+03,2.189960629921259727e+00,0.000000000000000000e+00
1.524000000000000000e+03,2.101377952755905554e+00,0.000000000000000000e+00
1.525000000000000000e+03,1.903824521934758263e+00,0.000000000000000000e+00
1.526000000000000000e+03,1.851096737907761636e+00,0.000000000000000000e+00
1.527000000000000000e+03,2.211754780652418262e+00,0.000000000000000000e+00
1.528000000000000000e+03,2.988610798650168654e+00,0.000000000000000000e+00
1.529000000000000000e+03,3.691647919010123680e+00,0.000000000000000000e+00
1.530000000000000000e+03,3.846316085489313696e+00,0.000000000000000000e+00
1.531000000000000000e+03,3.432930258717660443e+00,0.000000000000000000e+00
1.532000000000000000e+03,3.046259842519685179e+00,0.000000000000000000e+00
1.533000000000000000e+03,2.831833520809898808e+00,1.000000000000000000e+00
1.534000000000000000e+03,2.530230596175477853e+00,0.000000000000000000e+00
1.535000000000000000e+03,2.295416197975252981e+00,0.000000000000000000e+00
1.536000000000000000e+03,2.211754780652418262e+00,0.000000000000000000e+00
1.537000000000000000e+03,2.201912260967378909e+00,0.000000000000000000e+00
1.538000000000000000e+03,2.168166479190101192e+00,0.000000000000000000e+00
1.539000000000000000e+03,2.154105736782902181e+00,0.000000000000000000e+00
1.540000000000000000e+03,2.144263217097862828e+00,0.000000000000000000e+00
1.541000000000000000e+03,2.154808773903261976e+00,0.000000000000000000e+00
1.542000000000000000e+03,2.109814398200224872e+00,0.000000000000000000e+00
1.543000000000000000e+03,2.110517435320585111e+00,0.000000000000000000e+00
1.544000000000000000e+03,2.223003374578177649e+00,0.000000000000000000e+00
1.545000000000000000e+03,2.204021372328458739e+00,0.000000000000000000e+00
1.546000000000000000e+03,2.213160854893138296e+00,0.000000000000000000e+00
1.547000000000000000e+03,2.227924634420697547e+00,0.000000000000000000e+00
1.548000000000000000e+03,2.182930258717660443e+00,0.000000000000000000e+00
1.549000000000000000e+03,2.134420697412823476e+00,0.000000000000000000e+00
1.550000000000000000e+03,2.157620922384702045e+00,0.000000000000000000e+00
1.551000000000000000e+03,2.211754780652418262e+00,0.000000000000000000e+00
1.552000000000000000e+03,2.234251968503937036e+00,0.000000000000000000e+00
1.553000000000000000e+03,2.224409448818897683e+00,0.000000000000000000e+00
1.554000000000000000e+03,2.201912260967378909e+00,0.000000000000000000e+00
1.555000000000000000e+03,2.233548931383577241e+00,0.000000000000000000e+00
1.556000000000000000e+03,2.228627671541057342e+00,0.000000000000000000e+00
1.557000000000000000e+03,2.150590551181102317e+00,0.000000000000000000e+00
1.558000000000000000e+03,2.155511811023622215e+00,0.000000000000000000e+00
1.559000000000000000e+03,2.173790776152980886e+00,0.000000000000000000e+00
1.560000000000000000e+03,2.121766029246344054e+00,0.000000000000000000e+00
1.561000000000000000e+03,2.130905511811023612e+00,0.000000000000000000e+00
1.562000000000000000e+03,2.104893138357705418e+00,0.000000000000000000e+00
1.563000000000000000e+03,2.076068616422947155e+00,0.000000000000000000e+00
1.564000000000000000e+03,2.116844769403824600e+00,0.000000000000000000e+00
1.565000000000000000e+03,2.129499437570303577e+00,0.000000000000000000e+00
1.566000000000000000e+03,2.125984251968504157e+00,0.000000000000000000e+00
1.567000000000000000e+03,2.186445444319459863e+00,0.000000000000000000e+00
1.568000000000000000e+03,2.285573678290213628e+00,0.000000000000000000e+00
1.569000000000000000e+03,2.353768278965129301e+00,0.000000000000000000e+00
1.570000000000000000e+03,2.407199100112485723e+00,0.000000000000000000e+00
1.571000000000000000e+03,2.450787401574803237e+00,0.000000000000000000e+00
1.572000000000000000e+03,2.461332958380202385e+00,0.000000000000000000e+00
1.573000000000000000e+03,2.459223847019122555e+00,0.000000000000000000e+00
1.574000000000000000e+03,2.462739032620922419e+00,0.000000000000000000e+00
1.575000000000000000e+03,2.419853768278965145e+00,0.000000000000000000e+00
1.576000000000000000e+03,2.384701912260967394e+00,0.000000000000000000e+00
1.577000000000000000e+03,2.401574803149606474e+00,0.000000000000000000e+00
1.578000000000000000e+03,2.438835770528684055e+00,0.000000000000000000e+00
1.579000000000000000e+03,2.437429696287964020e+00,0.000000000000000000e+00
1.580000000000000000e+03,2.403683914510686304e+00,0.000000000000000000e+00
1.581000000000000000e+03,2.423368953880765009e+00,0.000000000000000000e+00
1.582000000000000000e+03,2.447272215973003373e+00,0.000000000000000000e+00
1.583000000000000000e+03,2.419150731158605350e+00,0.000000000000000000e+00
1.584000000000000000e+03,2.426884139482564873e+00,0.000000000000000000e+00
1.585000000000000000e+03,2.454302587176603101e+00,0.000000000000000000e+00
1.586000000000000000e+03,2.490157480314960647e+00,0.000000000000000000e+00
1.587000000000000000e+03,2.441647919010123680e+00,0.000000000000000000e+00
1.588000000000000000e+03,2.414932508436445247e+00,0.000000000000000000e+00
1.589000000000000000e+03,2.414932508436445247e+00,0.000000000000000000e+00
1.590000000000000000e+03,2.445163104611923544e+00,0.000000000000000000e+00
1.591000000000000000e+03,2.459926884139482350e+00,0.000000000000000000e+00
1.592000000000000000e+03,2.422665916760404770e+00,0.000000000000000000e+00
1.593000000000000000e+03,2.487345331833521023e+00,0.000000000000000000e+00
1.594000000000000000e+03,2.531636670416197887e+00,0.000000000000000000e+00
1.595000000000000000e+03,2.557649043869516525e+00,0.000000000000000000e+00
1.596000000000000000e+03,2.603346456692913424e+00,0.000000000000000000e+00
1.597000000000000000e+03,2.616001124859392402e+00,0.000000000000000000e+00
1.598000000000000000e+03,2.595613048368953901e+00,0.000000000000000000e+00
